0,1.1875,0,0,0,0,0
0.001,1.375,0,0,0,0,0
0.002,1.5625,0,0,0,0,0
0.003,1.875,0,0,0,0,0
0.004,1.8125,0,0,0,0,0
0.005,1.6875,0,0,0,0,0
0.006,1.625,0,0,0,0,0
0.007,1.5625,0,0,0,0,0
0.008,0.9375,0,0,0,0,0
0.009,0.3125,0,0,0,0,0
0.01,1.3125,0,0,0,0,0
0.011,2.3125,0,0,0,0,0
0.012,2.3125,0,0,0,0,0
0.013,2.3125,0,0,0,0,0
0.014,2.375,0,0,0,0,0
0.015,2.5,0,0,0,0,0
0.016,2.5625,0,0,0,0,0
0.017,2.625,0,0,0,0,0
0.018,1.625,0,0,0,0,0
0.019,0.625,0,0,0,0,0
0.02,0.625,0,0,0,0,0
0.021,0.625,0,0,0,0,0
0.022,1.0625,0,0,0,0,0
0.023,1.5625,0,0,0,0,0
0.024,1.25,0,0,0,0,0
0.025,0.9375,0,0,0,0,0
0.026,0.875,0,0,0,0,0
0.027,0.75,0,0,0,0,0
0.028,1.1875,0,0,0,0,0
0.029,1.6875,0,0,0,0,0
0.03,1.8125,0,0,0,0,0
0.031,2,0,0,0,0,0
0.032,0.9375,0,0,0,0,0
0.033,-0.1875,0,0,0,0,0
0.034,-0.8125,0,0,0,0,0
0.035,-1.4375,0,0,0,0,0
0.036,-1.4375,0,0,0,0,0
0.037,-1.4375,0,0,0,0,0
0.038,-1.375,0,0,0,0,0
0.039,-1.25,0,0,0,0,0
0.04,-0.625,0,0,0,0,0
0.041,0,0,0,0,0,0
0.042,0.1875,0,0,0,0,0
0.043,0.4375,0,0,0,0,0
0.044,0.375,0,0,0,0,0
0.045,0.3125,0,0,0,0,0
0.046,1.0625,0,0,0,0,0
0.047,1.875,0,0,0,0,0
0.048,2.4375,0,0,0,0,0
0.049,2.9375,0,0,0,0,0
0.05,2.8125,0,0,0,0,0
0.051,2.625,0,0,0,0,0
0.052,2.625,0,0,0,0,0
0.053,2.625,0,0,0,0,0
0.054,1.9375,0,0,0,0,0
0.055,1.25,0,0,0,0,0
0.056,0.75,0,0,0,0,0
0.057,0.3125,0,0,0,0,0
0.058,0,0,0,0,0,0
0.059,-0.3125,0,0,0,0,0
0.06,-0.125,0,0,0,0,0
0.061,0.125,0,0,0,0,0
0.062,0.1875,0,0,0,0,0
0.063,0.3125,0,0,0,0,0
0.064,0.75,0,0,0,0,0
0.065,1.25,0,0,0,0,0
0.066,1.375,0,0,0,0,0
0.067,1.5625,0,0,0,0,0
0.068,1.4375,0,0,0,0,0
0.069,1.25,0,0,0,0,0
0.07,1.25,0,0,0,0,0
0.071,1.25,0,0,0,0,0
0.072,1.0625,0,0,0,0,0
0.073,0.9375,0,0,0,0,0
0.074,1.1875,0,0,0,0,0
0.075,1.5625,0,0,0,0,0
0.076,2,0,0,0,0,0
0.077,2.5,0,0,0,0,0
0.078,2.4375,0,0,0,0,0
0.079,2.5,0,0,0,0,0
0.08,2.1875,0,0,0,0,0
0.081,1.875,0,0,0,0,0
0.082,1.25,0,0,0,0,0
0.083,0.625,0,0,0,0,0
0.084,0.8125,0,0,0,0,0
0.085,1.0625,0,0,0,0,0
0.086,1.8125,0,0,0,0,0
0.087,2.625,0,0,0,0,0
0.088,3,0,0,0,0,0
0.089,3.4375,0,0,0,0,0
0.09,2.625,0,0,0,0,0
0.091,1.6875,0,0,0,0,0
0.092,1.5,0,0,0,0,0
0.093,1.25,0,0,0,0,0
0.094,1.5,0,0,0,0,0
0.095,1.6875,0,0,0,0,0
0.096,1.75,0,0,0,0,0
0.097,1.875,0,0,0,0,0
0.098,1.5625,0,0,0,0,0
0.099,1.25,0,0,0,0,0
0.1,1.6875,0,0,0,0,0
0.101,2.1875,0,0,0,0,0
0.102,2.0625,0,0,0,0,0
0.103,2,0,0,0,0,0
0.104,1.625,0,0,0,0,0
0.105,1.25,0,0,0,0,0
0.106,1.9375,0,0,0,0,0
0.107,2.625,0,0,0,0,0
0.108,3.75,0,0,0,0,0
0.109,4.8125,0,0,0,0,0
0.11,3.9375,0,0,0,0,0
0.111,3.125,0,0,0,0,0
0.112,3.0625,0,0,0,0,0
0.113,2.9375,0,0,0,0,0
0.114,3.4375,0,0,0,0,0
0.115,3.875,0,0,0,0,0
0.116,4,0,0,0,0,0
0.117,4.0625,0,0,0,0,0
0.118,4.125,0,0,0,0,0
0.119,4.1875,0,0,0,0,0
0.12,4.375,0,0,0,0,0
0.121,4.5,0,0,0,0,0
0.122,4.0625,0,0,0,0,0
0.123,3.5625,0,0,0,0,0
0.124,3.4375,0,0,0,0,0
0.125,3.25,0,0,0,0,0
0.126,3.5625,0,0,0,0,0
0.127,3.875,0,0,0,0,0
0.128,4,0,0,0,0,0
0.129,4.1875,0,0,0,0,0
0.13,3.8125,0,0,0,0,0
0.131,3.4375,0,0,0,0,0
0.132,3.6875,0,0,0,0,0
0.133,3.875,0,0,0,0,0
0.134,4.1875,0,0,0,0,0
0.135,4.5,0,0,0,0,0
0.136,4.0625,0,0,0,0,0
0.137,3.5625,0,0,0,0,0
0.138,4.375,0,0,0,0,0
0.139,5.125,0,0,0,0,0
0.14,5.0625,0,0,0,0,0
0.141,5,0,0,0,0,0
0.142,5.625,0,0,0,0,0
0.143,6.25,0,0,0,0,0
0.144,5.9375,0,0,0,0,0
0.145,5.625,0,0,0,0,0
0.146,5.875,0,0,0,0,0
0.147,6.0625,0,0,0,0,0
0.148,6.3125,0,0,0,0,0
0.149,6.5625,0,0,0,0,0
0.15,6.1875,0,0,0,0,0
0.151,5.75,0,0,0,0,0
0.152,5.6875,0,0,0,0,0
0.153,5.625,0,0,0,0,0
0.154,5.5625,0,0,0,0,0
0.155,5.4375,0,0,0,0,0
0.156,5.4375,0,0,0,0,0
0.157,5.4375,0,0,0,0,0
0.158,5.625,0,0,0,0,0
0.159,5.75,0,0,0,0,0
0.16,5.75,0,0,0,0,0
0.161,5.75,0,0,0,0,0
0.162,5.75,0,0,0,0,0
0.163,5.75,0,0,0,0,0
0.164,6.3125,0,0,0,0,0
0.165,6.875,0,0,0,0,0
0.166,6.8125,0,0,0,0,0
0.167,6.6875,0,0,0,0,0
0.168,6.8125,0,0,0,0,0
0.169,6.875,0,0,0,0,0
0.17,6.9375,0,0,0,0,0
0.171,7,0,0,0,0,0
0.172,7.6875,0,0,0,0,0
0.173,8.4375,0,0,0,0,0
0.174,8.5,0,0,0,0,0
0.175,8.5625,0,0,0,0,0
0.176,8.4375,0,0,0,0,0
0.177,8.25,0,0,0,0,0
0.178,8.375,0,0,0,0,0
0.179,8.4375,0,0,0,1,0
0.18,8.625,0,0,0,0,0
0.181,8.875,0,0,0,0,0
0.182,8.3125,0,0,0,0,0
0.183,7.625,0,0,0,0,0
0.184,7.625,0,0,0,0,0
0.185,7.625,0,0,0,0,0
0.186,7.5625,0,0,0,0,0
0.187,7.5,0,0,0,0,0
0.188,7.75,0,0,0,0,0
0.189,7.9375,0,0,0,0,0
0.19,8.0625,0,0,0,0,0
0.191,8.125,0,0,0,0,0
0.192,7.875,0,0,0,0,0
0.193,7.625,0,0,0,0,0
0.194,7.3125,0,0,0,0,0
0.195,7,0,0,0,0,0
0.196,6.9375,0,0,0,0,0
0.197,6.875,0,0,0,0,0
0.198,6.75,0,0,0,0,0
0.199,6.6875,0,0,0,0,0
0.2,7.1875,0,0,0,0,0
0.201,7.625,0,0,0,0,0
0.202,7.9375,0,0,0,0,0
0.203,8.25,0,0,0,0,0
0.204,8.3125,0,0,0,0,0
0.205,8.25,0,0,0,0,0
0.206,8.1875,0,0,0,0,0
0.207,8.125,0,0,0,0,0
0.208,7.0625,0,0,0,0,0
0.209,5.9375,0,0,0,0,0
0.21,5.875,0,0,0,0,0
0.211,5.75,0,0,0,0,0
0.212,5.4375,0,0,0,0,0
0.213,5.125,0,0,0,0,0
0.214,4.8125,0,0,0,0,0
0.215,4.5,0,0,0,0,0
0.216,3.9375,0,0,0,0,0
0.217,3.4375,0,0,0,0,0
0.218,4.1875,0,0,0,0,0
0.219,5,0,0,0,0,0
0.22,5,0,0,0,0,0
0.221,5,0,0,0,0,0
0.222,5.0625,0,0,0,0,0
0.223,5.125,0,0,0,0,0
0.224,5.5,0,0,0,0,0
0.225,5.9375,0,0,0,0,0
0.226,5.8125,0,0,0,0,0
0.227,5.75,0,0,0,0,0
0.228,5.625,0,0,0,0,0
0.229,5.4375,0,0,0,0,0
0.23,5.3125,0,0,0,0,0
0.231,5.125,0,0,0,0,0
0.232,4.8125,0,0,0,0,0
0.233,4.5,0,0,0,0,0
0.234,4.4375,0,0,0,0,0
0.235,4.375,0,0,0,0,0
0.236,3.9375,0,0,0,0,0
0.237,3.4375,0,0,0,0,0
0.238,3.3125,0,0,0,0,0
0.239,3.125,0,0,0,0,0
0.24,3.0625,0,0,0,0,0
0.241,3.125,0,0,0,0,0
0.242,3,0,0,0,0,0
0.243,2.8125,0,0,0,0,0
0.244,2.4375,0,0,0,0,0
0.245,2,0,0,0,0,0
0.246,1.875,0,0,0,0,0
0.247,1.6875,0,0,0,0,0
0.248,2.0625,0,0,0,0,0
0.249,2.5,0,0,0,0,0
0.25,2.5,0,0,0,0,0
0.251,2.5,0,0,0,0,0
0.252,3.375,0,0,0,0,0
0.253,4.1875,0,0,0,0,0
0.254,4.1875,0,0,0,0,0
0.255,4.1875,0,0,0,0,0
0.256,4,0,0,0,0,0
0.257,3.75,0,0,0,0,0
0.258,3.6875,0,0,0,0,0
0.259,3.75,0,0,0,0,0
0.26,3.6875,0,0,0,0,0
0.261,3.5625,0,0,0,0,0
0.262,3,0,0,0,0,0
0.263,2.5,0,0,0,0,0
0.264,2.3125,0,0,0,0,0
0.265,2.1875,0,0,0,0,0
0.266,2.375,0,0,0,0,0
0.267,2.625,0,0,0,0,0
0.268,2.875,0,0,0,0,0
0.269,3.125,0,0,0,0,0
0.27,3,0,0,0,0,0
0.271,2.9375,0,0,0,0,0
0.272,3.125,0,0,0,0,0
0.273,3.25,0,0,0,0,0
0.274,3.1875,0,0,0,0,0
0.275,3.125,0,0,0,0,0
0.276,2.5,0,0,0,0,0
0.277,1.875,0,0,0,0,0
0.278,2.125,0,0,0,0,0
0.279,2.3125,0,0,0,0,0
0.28,2.1875,0,0,0,0,1
0.281,2,0,0,0,0,0
0.282,0.8125,0,0,0,0,0
0.283,-0.5,0,0,0,0,0
0.284,-0.5625,0,0,0,0,0
0.285,-0.625,0,0,0,0,0
0.286,-0.25,0,0,0,0,0
0.287,0.125,0,0,0,0,0
0.288,0.8125,0,0,0,0,0
0.289,1.5625,0,0,0,0,0
0.29,1.5625,0,0,0,0,0
0.291,1.5625,0,0,0,0,0
0.292,2.125,0,0,0,0,0
0.293,2.625,0,0,0,0,0
0.294,2.75,0,0,0,0,0
0.295,2.9375,0,0,0,0,0
0.296,2.875,0,0,0,0,0
0.297,2.8125,0,0,0,0,0
0.298,2.9375,0,0,0,0,0
0.299,3.125,0,0,0,0,0
0.3,3.0625,0,0,0,0,0
0.301,2.9375,0,0,0,0,0
0.302,3,0,0,0,0,0
0.303,3.125,0,0,0,0,0
0.304,3.0625,0,0,0,0,0
0.305,2.9375,0,0,0,0,0
0.306,2.9375,0,0,0,0,0
0.307,2.9375,0,0,0,0,0
0.308,2.75,0,0,0,0,0
0.309,2.5,0,0,0,0,0
0.31,2.3125,0,0,0,0,0
0.311,2.1875,0,0,0,0,0
0.312,1.8125,0,0,0,0,0
0.313,1.375,0,0,0,0,0
0.314,1.75,0,0,0,0,0
0.315,2.1875,0,0,0,0,0
0.316,2.75,0,0,0,0,0
0.317,3.4375,0,0,0,0,0
0.318,3.875,0,0,0,0,0
0.319,4.375,0,0,0,0,0
0.32,4.3125,0,0,0,0,0
0.321,4.1875,0,0,0,0,0
0.322,3.9375,0,0,0,0,0
0.323,3.75,0,0,0,0,0
0.324,3.1875,0,0,0,0,0
0.325,2.625,0,0,0,0,0
0.326,2.8125,0,0,0,0,0
0.327,2.9375,0,0,0,0,0
0.328,2.6875,0,0,0,0,0
0.329,2.5,0,0,0,0,0
0.33,2.3125,0,0,0,0,0
0.331,2.1875,0,0,0,0,0
0.332,2.125,0,0,0,0,0
0.333,2,0,0,0,0,0
0.334,2.0625,0,0,0,0,0
0.335,2.1875,0,0,0,0,0
0.336,2.1875,0,0,0,0,0
0.337,2.1875,0,0,0,0,0
0.338,2.5625,0,0,0,0,0
0.339,2.9375,0,0,0,0,0
0.34,3.25,0,0,0,0,0
0.341,3.5625,0,0,0,0,0
0.342,4.3125,0,0,0,0,0
0.343,5.125,0,0,0,0,0
0.344,4.5625,0,0,0,0,0
0.345,4.0625,0,0,0,0,0
0.346,3.3125,0,0,0,0,0
0.347,2.5,0,0,0,0,0
0.348,2.625,0,0,0,0,0
0.349,2.8125,0,0,0,0,0
0.35,3.125,0,0,0,0,0
0.351,3.4375,0,0,0,0,0
0.352,3.6875,0,0,0,0,0
0.353,3.875,0,0,0,0,0
0.354,3.8125,0,0,0,0,0
0.355,3.75,0,0,0,0,0
0.356,3.6875,0,0,0,0,0
0.357,3.5625,0,0,0,0,0
0.358,3.5,0,0,0,0,0
0.359,3.4375,0,0,0,0,0
0.36,3.3125,0,0,0,0,0
0.361,3.125,0,0,0,0,0
0.362,3.125,0,0,0,0,0
0.363,3.125,0,0,0,0,0
0.364,2.5,0,0,0,0,0
0.365,1.875,0,0,0,0,0
0.366,1.5625,0,0,0,0,0
0.367,1.25,0,0,0,0,0
0.368,1.3125,0,0,0,0,0
0.369,1.375,0,0,0,0,0
0.37,1.25,0,0,0,0,0
0.371,1.0625,0,0,0,0,0
0.372,1.6875,0,0,0,0,0
0.373,2.3125,0,0,0,0,0
0.374,2.375,0,0,0,0,0
0.375,2.5,0,0,0,0,0
0.376,2.6875,0,0,0,0,0
0.377,2.8125,0,0,0,0,0
0.378,2.75,0,0,0,0,0
0.379,2.625,0,0,0,0,0
0.38,2.5625,0,0,0,0,0
0.381,2.5,0,0,0,0,0
0.382,2.5625,0,0,0,0,0
0.383,2.625,0,0,0,0,0
0.384,2.375,0,0,0,0,0
0.385,2,0,0,0,0,0
0.386,2.3125,0,0,0,0,0
0.387,2.625,0,0,0,0,0
0.388,3.5,0,0,0,0,0
0.389,4.375,0,0,0,0,0
0.39,4.5,0,0,0,0,0
0.391,4.6875,0,0,0,0,0
0.392,4.0625,0,0,0,0,0
0.393,3.75,0,0,0,0,0
0.394,4.125,0,0,0,0,0
0.395,3.25,0,0,0,0,0
0.396,2.8125,0,0,0,0,0
0.397,2.3125,0,0,0,0,0
0.398,1.625,0,0,0,0,0
0.399,0.9375,0,0,0,0,0
0.4,0.625,0,0,0,0,0
0.401,0.9375,0,0,0,0,0
0.402,0.75,0,0,0,0,0
0.403,1.0625,0,0,0,0,0
0.404,1.5,0,0,0,0,0
0.405,1.5625,0,0,0,0,0
0.406,2.5,0,0,0,0,0
0.407,2.625,0,0,0,0,0
0.408,3.125,0,0,0,0,0
0.409,3.4375,0,0,0,0,0
0.41,3.6875,0,0,0,0,0
0.411,3.75,0,0,0,0,0
0.412,3.875,0,0,0,0,0
0.413,4.5,0,0,0,0,0
0.414,4.375,0,0,0,0,0
0.415,3.125,0,0,0,0,0
0.416,3.3125,0,0,0,0,0
0.417,2.9375,0,0,0,0,0
0.418,3,0,0,0,0,0
0.419,2.9375,0,0,0,0,0
0.42,3.0625,0,0,0,0,0
0.421,2.9375,0,0,0,0,0
0.422,3.1875,0,0,0,0,0
0.423,3.125,0,0,0,0,0
0.424,2.1875,0,0,0,0,0
0.425,1.25,0,0,0,0,0
0.426,2.1875,0,0,0,0,0
0.427,3.25,0,0,0,0,0
0.428,3.0625,0,0,0,0,0
0.429,3.125,0,0,0,0,0
0.43,2.9375,0,0,0,0,0
0.431,2.9375,0,0,0,0,0
0.432,2.8125,0,0,0,0,0
0.433,2.625,0,0,0,0,0
0.434,3.25,0,0,0,0,0
0.435,3.5625,0,0,0,0,0
0.436,4.5625,0,0,0,0,0
0.437,4.375,0,0,0,0,0
0.438,3.4375,0,0,0,0,0
0.439,2.625,0,0,0,0,0
0.44,2.5,0,0,0,0,0
0.441,2.625,0,0,0,0,0
0.442,2.625,0,0,0,0,0
0.443,2.3125,0,0,0,0,0
0.444,2.4375,0,0,0,0,0
0.445,2.3125,0,0,0,0,0
0.446,2.625,0,0,0,0,0
0.447,2.3125,0,0,0,0,0
0.448,2.1875,0,0,0,0,0
0.449,1.875,0,0,0,0,0
0.45,1.1875,0,0,0,0,0
0.451,0.4375,0,0,0,0,0
0.452,-0.125,0,0,0,0,0
0.453,-0.1875,0,0,0,0,0
0.454,0.1875,0,0,0,0,0
0.455,0.125,0,0,0,0,0
0.456,1.125,0,0,0,0,0
0.457,2,0,0,0,0,0
0.458,2.5625,0,0,0,0,0
0.459,2.8125,0,0,0,0,0
0.46,3.4375,0,0,0,0,0
0.461,4.375,0,0,0,0,0
0.462,3.9375,0,0,0,0,0
0.463,4.0625,0,0,0,0,0
0.464,4.25,0,0,0,0,0
0.465,3.75,0,0,0,0,0
0.466,3.8125,0,0,0,0,0
0.467,3.4375,0,0,0,0,0
0.468,2.625,0,0,0,0,0
0.469,2.625,0,0,0,0,0
0.47,1.5625,0,0,0,0,0
0.471,0.75,0,0,0,0,0
0.472,0.5625,0,0,0,0,0
0.473,0.4375,0,0,0,0,0
0.474,0.6875,0,0,0,0,0
0.475,0.625,0,0,0,0,0
0.476,1,0,0,0,0,0
0.477,1.25,0,0,0,0,0
0.478,2.0625,0,0,0,0,0
0.479,2.8125,0,0,0,0,0
0.48,2.8125,0,0,0,0,0
0.481,3.25,0,0,0,0,0
0.482,3.25,0,0,0,0,0
0.483,3.4375,0,0,0,0,0
0.484,3.4375,0,0,0,0,0
0.485,3.75,0,0,0,0,0
0.486,3.75,0,0,0,0,0
0.487,4.0625,0,0,0,0,0
0.488,4,0,0,0,0,0
0.489,4.0625,0,0,0,0,0
0.49,4.1875,0,0,0,0,0
0.491,4.375,0,0,0,0,0
0.492,3.125,0,0,0,0,0
0.493,3.5625,0,0,0,0,0
0.494,4.3125,0,0,0,0,0
0.495,3.875,0,0,0,0,0
0.496,3.125,0,0,0,0,0
0.497,2.3125,0,0,0,0,0
0.498,1.5625,0,0,0,0,0
0.499,0.625,0,0,0,0,0
0.5,1.1875,0,0,0,0,0
0.501,0.625,0,0,0,0,0
0.502,0.5,0,0,0,0,0
0.503,1.0625,0,0,0,0,0
0.504,1.1875,0,0,0,0,0
0.505,1.0625,0,0,0,0,0
0.506,1.0625,0,0,0,0,0
0.507,0.75,0,0,0,0,0
0.508,0.75,0,0,0,0,0
0.509,1.0625,0,0,0,0,0
0.51,2.125,0,0,0,0,0
0.511,2.625,0,0,0,0,0
0.512,2.25,0,0,0,0,0
0.513,2,0,0,0,0,0
0.514,2.625,0,0,0,0,0
0.515,2.1875,0,0,0,0,0
0.516,2.25,0,0,0,0,0
0.517,2.5,0,0,0,0,0
0.518,2,0,0,0,0,0
0.519,2.5,0,0,0,0,0
0.52,2.6875,0,0,0,0,0
0.521,2.625,0,0,0,0,0
0.522,1.75,0,0,0,0,0
0.523,1.5625,0,0,0,0,0
0.524,2.125,0,0,0,0,0
0.525,2.3125,0,0,0,0,0
0.526,2.8125,0,0,0,0,0
0.527,3.25,0,0,0,0,0
0.528,3.125,0,0,0,0,0
0.529,3.25,0,0,0,0,0
0.53,2.8125,0,0,0,0,0
0.531,2.1875,0,0,0,0,0
0.532,2.3125,0,0,0,0,0
0.533,2.625,0,0,0,0,0
0.534,2.9375,0,0,0,0,0
0.535,2.9375,0,0,0,0,0
0.536,3.3125,0,0,0,0,0
0.537,3.875,0,0,0,0,0
0.538,4,0,0,0,0,0
0.539,3.75,0,0,0,0,0
0.54,3.4375,0,0,0,0,0
0.541,3.875,0,0,0,0,0
0.542,3.5,0,0,0,0,0
0.543,3.75,0,0,0,0,0
0.544,3.1875,0,0,0,0,0
0.545,2.625,0,0,0,0,0
0.546,2.75,0,0,0,0,0
0.547,2.5,0,0,0,0,0
0.548,2.625,0,0,0,0,0
0.549,2.5,0,0,0,0,0
0.55,3,0,0,0,0,0
0.551,3.75,0,0,0,0,0
0.552,3.4375,0,0,0,0,0
0.553,3.4375,0,0,0,0,0
0.554,2.8125,0,0,0,0,0
0.555,2.8125,0,0,0,0,0
0.556,2.5625,0,0,0,0,0
0.557,2.625,0,0,0,0,0
0.558,1.9375,0,0,0,0,0
0.559,1.375,0,0,0,0,0
0.56,1.0625,0,0,0,0,0
0.561,0.75,0,0,0,0,0
0.562,1,0,0,0,0,0
0.563,1.6875,0,0,0,0,0
0.564,1.625,0,0,0,0,0
0.565,1.25,0,0,0,0,0
0.566,2.25,0,0,0,0,0
0.567,3.125,0,0,0,0,0
0.568,2,0,0,0,0,0
0.569,2.1875,0,0,0,0,0
0.57,1.5625,0,0,0,0,0
0.571,0.625,0,0,0,0,0
0.572,0.5,0,0,0,0,0
0.573,0.4375,0,0,0,0,0
0.574,1.1875,0,0,0,0,0
0.575,1.875,0,0,0,0,0
0.576,1.5,0,0,0,0,0
0.577,1.375,0,0,0,0,0
0.578,1,0,0,0,0,0
0.579,1.375,0,0,0,0,0
0.58,1.75,0,0,0,0,0
0.581,1.875,0,0,0,0,0
0.582,2.0625,0,0,0,0,0
0.583,2.5,0,0,0,0,0
0.584,2.1875,0,0,0,0,0
0.585,2,0,0,0,0,0
0.586,1.75,0,0,0,0,0
0.587,2,0,0,0,0,0
0.588,1.9375,0,0,0,0,0
0.589,1.5625,0,0,0,0,0
0.59,1.8125,0,0,0,0,0
0.591,1.6875,0,0,0,0,0
0.592,2.0625,0,0,0,0,0
0.593,1.375,0,0,0,0,0
0.594,2.125,0,0,0,0,0
0.595,2.5,0,0,0,0,0
0.596,2.5625,0,0,0,0,0
0.597,2.8125,0,0,0,0,0
0.598,3,0,0,0,0,0
0.599,3.25,0,0,0,0,0
0.6,3.875,0,0,0,0,0
0.601,4.0625,0,0,0,0,0
0.602,4.5,0,0,0,0,0
0.603,5.125,0,0,0,0,0
0.604,4.5,0,0,0,0,0
0.605,4.1875,0,0,0,0,0
0.606,4.375,0,0,0,0,0
0.607,4.375,0,0,0,0,0
0.608,4.1875,0,0,0,0,0
0.609,3.875,0,0,0,0,0
0.61,3.25,0,0,0,0,0
0.611,3.25,0,0,0,0,0
0.612,2.5625,0,0,0,0,0
0.613,1.6875,0,0,0,0,0
0.614,2.0625,0,0,0,0,0
0.615,1.875,0,0,0,0,0
0.616,1.75,0,0,0,0,0
0.617,0.625,0,0,0,0,0
0.618,1.125,0,0,0,0,0
0.619,1.0625,0,0,0,0,0
0.62,1.625,0,0,0,0,0
0.621,2.3125,0,0,0,0,0
0.622,1.625,0,0,0,0,0
0.623,1.6875,0,0,0,0,0
0.624,1.5625,0,0,0,0,0
0.625,1.0625,0,0,0,0,0
0.626,0.6875,0,0,0,0,0
0.627,0.75,0,0,0,0,0
0.628,1,0,0,0,0,0
0.629,1.375,0,0,0,0,0
0.63,1.5625,0,0,0,0,0
0.631,1.5625,0,0,0,0,0
0.632,2.0625,0,0,0,0,0
0.633,2.3125,0,0,0,0,0
0.634,2.3125,0,0,0,0,0
0.635,3.125,0,0,0,0,0
0.636,2.9375,0,0,0,0,0
0.637,2.8125,0,0,0,0,0
0.638,2,0,0,0,0,0
0.639,1.0625,0,0,0,0,0
0.64,0.875,0,0,0,0,0
0.641,1.5625,0,0,0,0,0
0.642,1.4375,0,0,0,0,0
0.643,1.375,0,0,0,0,0
0.644,1.625,0,0,0,0,0
0.645,2.5,0,0,0,0,0
0.646,3.625,0,0,0,0,0
0.647,3.75,0,0,0,0,0
0.648,4.5625,0,0,0,0,0
0.649,4.5,0,0,0,0,0
0.65,4.1875,0,0,0,0,0
0.651,3.75,0,0,0,0,0
0.652,3.6875,0,0,0,0,0
0.653,4.0625,0,0,0,0,0
0.654,4.125,0,0,0,0,0
0.655,3.5625,0,0,0,0,0
0.656,3.5625,0,0,0,0,0
0.657,4.1875,0,0,0,0,0
0.658,4.5625,0,0,0,0,0
0.659,4.8125,0,0,0,0,0
0.66,3.625,0,0,0,0,0
0.661,4.1875,0,0,0,0,0
0.662,4.875,0,0,0,0,0
0.663,4.8125,0,0,0,0,0
0.664,4.3125,0,0,0,0,0
0.665,4.1875,0,0,0,0,0
0.666,4.375,0,0,0,0,0
0.667,4.5,0,0,0,0,0
0.668,3.875,0,0,0,0,0
0.669,3.125,0,0,0,0,0
0.67,3.375,0,0,0,0,0
0.671,3.4375,0,0,0,0,0
0.672,2.6875,0,0,0,0,0
0.673,2.3125,0,0,0,0,0
0.674,2.875,0,0,0,0,0
0.675,2.9375,0,0,0,0,0
0.676,3.125,0,0,0,0,0
0.677,2.625,0,0,0,0,0
0.678,2.75,0,0,0,0,0
0.679,2.625,0,0,0,0,0
0.68,3.0625,0,0,0,0,0
0.681,3.75,0,0,0,0,0
0.682,4.0625,0,0,0,0,0
0.683,4.375,0,0,0,0,0
0.684,3.375,0,0,0,0,0
0.685,2.625,0,0,0,0,0
0.686,3.125,0,0,0,0,0
0.687,3.25,0,0,0,0,0
0.688,2.8125,0,0,0,0,0
0.689,3.4375,0,0,0,0,0
0.69,3.75,0,0,0,0,0
0.691,3.875,0,0,0,0,0
0.692,3.75,0,0,0,0,0
0.693,3.5625,0,0,0,0,0
0.694,3.8125,0,0,0,0,0
0.695,3.5625,0,0,0,0,0
0.696,4.3125,0,0,0,0,0
0.697,4.1875,0,0,0,0,0
0.698,3.3125,0,0,0,0,0
0.699,3.25,0,0,0,0,0
0.7,4.625,0,0,0,0,0
0.701,5.75,0,0,0,0,0
0.702,5.5625,0,0,0,0,0
0.703,6.0625,0,0,0,0,0
0.704,6,0,0,0,0,0
0.705,5.125,0,0,0,0,0
0.706,5.0625,0,0,0,0,0
0.707,5.125,0,0,0,0,0
0.708,6,0,0,0,0,0
0.709,6.5625,0,0,0,0,0
0.71,6.6875,0,0,0,0,0
0.711,6.875,0,0,0,0,0
0.712,5.625,0,0,0,0,0
0.713,4.5,0,0,0,0,0
0.714,4.6875,0,0,0,0,0
0.715,4.5,0,0,0,0,0
0.716,2.8125,0,0,0,0,0
0.717,1.5625,0,0,0,0,0
0.718,1.1875,0,0,0,0,0
0.719,0.75,0,0,0,0,0
0.72,0.8125,0,0,0,0,0
0.721,1.0625,0,0,0,0,0
0.722,1.4375,0,0,0,0,0
0.723,1.875,0,0,0,0,0
0.724,1.25,0,0,0,0,0
0.725,0.9375,0,0,0,0,0
0.726,1.3125,0,0,0,0,0
0.727,1.6875,0,0,0,0,0
0.728,1.25,0,0,0,0,0
0.729,1.5625,0,0,0,0,0
0.73,1.3125,0,0,0,0,0
0.731,0.625,0,0,0,0,0
0.732,0.3125,0,0,0,0,0
0.733,0,0,0,0,0,0
0.734,0.75,0,0,0,0,0
0.735,1.375,0,0,0,0,0
0.736,1.5625,0,0,0,0,0
0.737,1.6875,0,0,0,0,0
0.738,1.8125,0,0,0,0,0
0.739,2.1875,0,0,0,0,0
0.74,1.8125,0,0,0,0,0
0.741,1.875,0,0,0,0,0
0.742,2.5,0,0,0,0,0
0.743,1.875,0,0,0,0,0
0.744,1.5625,0,0,0,0,0
0.745,1.0625,0,0,0,0,0
0.746,0.9375,0,0,0,0,0
0.747,1.0625,0,0,0,0,0
0.748,1.875,0,0,0,0,0
0.749,2,0,0,0,0,0
0.75,1.6875,0,0,0,0,0
0.751,1.5625,0,0,0,0,0
0.752,1.625,0,0,0,0,0
0.753,1.25,0,0,0,0,0
0.754,1.6875,0,0,0,0,0
0.755,1.6875,0,0,0,0,0
0.756,1.125,0,0,0,0,0
0.757,1.5625,0,0,0,0,0
0.758,1.6875,0,0,0,0,0
0.759,2.1875,0,0,0,0,0
0.76,1.75,0,0,0,0,0
0.761,2,0,0,0,0,0
0.762,2.375,0,0,0,0,0
0.763,2.9375,0,0,0,0,0
0.764,2.4375,0,0,0,0,0
0.765,1.5625,0,0,0,0,0
0.766,2.1875,0,0,0,0,0
0.767,1.875,0,0,0,0,0
0.768,2.0625,0,0,0,0,0
0.769,2.8125,0,0,0,0,0
0.77,2.1875,0,0,0,0,0
0.771,1.5625,0,0,0,0,0
0.772,1.1875,0,0,0,0,0
0.773,1.25,0,0,0,0,0
0.774,1.625,0,0,0,0,0
0.775,1.0625,0,0,0,0,0
0.776,1.375,0,0,0,0,0
0.777,1.25,0,0,0,0,0
0.778,1.6875,0,0,0,0,0
0.779,1.875,0,0,0,0,0
0.78,1.5625,0,0,0,0,0
0.781,1.875,0,0,0,0,0
0.782,2,0,0,0,0,0
0.783,2,0,0,0,0,0
0.784,1.625,0,0,0,0,0
0.785,1.375,0,0,0,0,0
0.786,1.3125,0,0,0,0,0
0.787,1.5625,0,0,0,0,0
0.788,2.375,0,0,0,0,0
0.789,2.8125,0,0,0,0,0
0.79,2.4375,0,0,0,0,0
0.791,2.1875,0,0,0,0,0
0.792,2,0,0,0,0,0
0.793,1.5625,0,0,0,0,0
0.794,2.1875,0,0,0,0,0
0.795,1.6875,0,0,0,0,0
0.796,1.6875,0,0,0,0,0
0.797,1.5625,0,0,0,0,0
0.798,1.125,0,0,0,0,0
0.799,2.1875,0,0,0,0,0
0.8,2.75,0,0,0,0,0
0.801,2.9375,0,0,0,0,0
0.802,3.5625,0,0,0,0,0
0.803,3.4375,0,0,0,0,0
0.804,3.5,0,0,0,0,0
0.805,3.875,0,0,0,0,0
0.806,3.875,0,0,0,0,0
0.807,3.875,0,0,0,0,0
0.808,3.8125,0,0,0,0,0
0.809,4.0625,0,0,0,0,0
0.81,4.0625,0,0,0,0,0
0.811,3.75,0,0,0,0,0
0.812,2.8125,0,0,0,0,0
0.813,2.5,0,0,0,0,0
0.814,2.3125,0,0,0,0,0
0.815,2.5,0,0,0,0,0
0.816,2.3125,0,0,0,0,0
0.817,2,0,0,0,0,0
0.818,1.375,0,0,0,0,0
0.819,0.75,0,0,0,0,0
0.82,0.625,0,0,0,0,0
0.821,0.625,0,0,0,0,0
0.822,-0.25,0,0,0,0,0
0.823,-0.3125,0,0,0,0,0
0.824,-0.8125,0,0,0,0,0
0.825,-0.9375,0,0,0,0,0
0.826,0.375,0,0,0,0,0
0.827,0.75,0,0,0,0,0
0.828,0.6875,0,0,0,0,0
0.829,0.625,0,0,0,0,0
0.83,0.625,0,0,0,0,0
0.831,0,0,0,0,0,0
0.832,0.5,0,0,0,0,0
0.833,0.625,0,0,0,0,0
0.834,1.625,0,0,0,0,0
0.835,1.875,0,0,0,0,0
0.836,1.8125,0,0,0,0,0
0.837,1.6875,0,0,0,0,0
0.838,1.5,0,0,0,0,0
0.839,1.5625,0,0,0,0,0
0.84,1.75,0,0,0,0,0
0.841,2.3125,0,0,0,0,0
0.842,2.1875,0,0,0,0,0
0.843,2.5,0,0,0,0,0
0.844,1.3125,0,0,0,0,0
0.845,1.5625,0,0,0,0,0
0.846,1.875,0,0,0,0,0
0.847,1.875,0,0,0,0,0
0.848,2.3125,0,0,0,0,0
0.849,2.1875,0,0,0,0,0
0.85,2.75,0,0,0,0,0
0.851,3.875,0,0,0,0,0
0.852,2.625,0,0,0,0,0
0.853,2.9375,0,0,0,0,0
0.854,3.625,0,0,0,0,0
0.855,3.875,0,0,0,0,0
0.856,3.4375,0,0,0,0,0
0.857,3.4375,0,0,0,0,0
0.858,3.75,0,0,0,0,0
0.859,3.875,0,0,0,0,0
0.86,3.625,0,0,0,0,0
0.861,4.0625,0,0,0,0,0
0.862,4.3125,0,0,0,0,0
0.863,4.0625,0,0,0,0,0
0.864,3.8125,0,0,0,0,0
0.865,3.4375,0,0,0,0,0
0.866,3.5625,0,0,0,0,0
0.867,4.1875,0,0,0,0,0
0.868,4.9375,0,0,0,0,0
0.869,5.75,0,0,0,0,0
0.87,6.3125,0,0,0,0,0
0.871,6.6875,0,0,0,0,0
0.872,7.3125,0,0,0,0,0
0.873,7.625,0,0,0,0,0
0.874,8.0625,0,0,0,0,0
0.875,8.125,0,0,0,0,0
0.876,7.5,0,0,0,0,0
0.877,6.25,0,0,0,0,0
0.878,4.75,0,0,0,0,0
0.879,4.0625,0,0,0,0,0
0.88,4.5625,0,0,0,0,0
0.881,5.125,0,0,0,0,0
0.882,4.4375,0,0,0,0,0
0.883,4.375,0,0,0,0,0
0.884,2.5625,1,0,0,0,0
0.885,1.5625,0,0,0,0,0
0.886,2,0,0,0,0,0
0.887,2,0,0,0,0,0
0.888,3.4375,0,0,0,0,0
0.889,4.375,0,0,0,0,0
0.89,4.375,0,0,0,0,0
0.891,4.0625,0,0,0,0,0
0.892,3.4375,0,0,0,0,0
0.893,2.1875,0,0,0,0,0
0.894,1,0,0,0,0,0
0.895,-1.25,0,0,0,0,0
0.896,-5,0,0,0,0,0
0.897,-8.625,0,0,0,0,0
0.898,-10.75,0,0,0,0,0
0.899,-13.438,0,0,0,0,0
0.9,-15.75,0,0,0,0,0
0.901,-17.063,0,0,0,0,0
0.902,-18.25,0,0,0,0,0
0.903,-19.688,0,0,0,0,0
0.904,-19.625,0,1,0,0,0
0.905,-19.25,0,0,0,0,0
0.906,-20.125,0,0,0,0,0
0.907,-19.875,0,0,0,0,0
0.908,-18.25,0,0,0,0,0
0.909,-16.875,0,0,0,0,0
0.91,-16.438,0,0,0,0,0
0.911,-16.125,0,0,0,0,0
0.912,-15.813,0,0,0,0,0
0.913,-16.125,0,0,0,0,0
0.914,-14.688,0,0,0,0,0
0.915,-13.313,0,0,0,0,0
0.916,-10.75,0,0,0,0,0
0.917,-7.5,0,0,0,0,0
0.918,-5,0,0,0,0,0
0.919,-2.375,0,0,0,0,0
0.92,-1.25,0,0,0,0,0
0.921,-0.625,0,0,0,0,0
0.922,-0.125,0,0,0,0,0
0.923,-0.5,0,0,0,0,0
0.924,0.9375,0,0,0,0,0
0.925,2.1875,0,0,0,0,0
0.926,3.0625,0,0,0,0,0
0.927,3.4375,0,0,0,0,0
0.928,4.125,0,0,0,0,0
0.929,4.5,0,0,0,0,0
0.93,4.625,0,0,1,0,0
0.931,4.1875,0,0,0,0,0
0.932,3.875,0,0,0,0,0
0.933,3.75,0,0,0,0,0
0.934,3.5,0,0,0,0,0
0.935,2.8125,0,0,0,0,0
0.936,1.9375,0,0,0,0,0
0.937,2.1875,0,0,0,0,0
0.938,2.3125,0,0,0,0,0
0.939,2.625,0,0,0,0,0
0.94,2.9375,0,0,0,0,0
0.941,2.9375,0,0,0,0,0
0.942,2.0625,0,0,0,0,0
0.943,1.5625,0,0,0,0,0
0.944,1.5625,0,0,0,0,0
0.945,1.5625,0,0,0,0,0
0.946,1.5,0,0,0,0,0
0.947,1.875,0,0,0,0,0
0.948,2.1875,0,0,0,0,0
0.949,2.5,0,0,0,0,0
0.95,2.3125,0,0,0,0,0
0.951,2.5,0,0,0,0,0
0.952,2.1875,0,0,0,0,0
0.953,1.25,0,0,0,0,0
0.954,1,0,0,0,0,0
0.955,0.625,0,0,0,0,0
0.956,1.25,0,0,0,0,0
0.957,0.75,0,0,0,0,0
0.958,1.4375,0,0,0,0,0
0.959,2.1875,0,0,0,0,0
0.96,1.1875,0,0,0,0,0
0.961,1.5625,0,0,0,0,0
0.962,2,0,0,0,0,0
0.963,2.1875,0,0,0,0,0
0.964,2.25,0,0,0,0,0
0.965,2.1875,0,0,0,0,0
0.966,2.5,0,0,0,0,0
0.967,2.1875,0,0,0,0,0
0.968,2.0625,0,0,0,0,0
0.969,2.1875,0,0,0,0,0
0.97,2.625,0,0,0,0,0
0.971,1.875,0,0,0,0,0
0.972,1.875,0,0,0,0,0
0.973,1.6875,0,0,0,0,0
0.974,1.8125,0,0,0,0,0
0.975,1.6875,0,0,0,0,0
0.976,1.0625,0,0,0,0,0
0.977,0.4375,0,0,0,0,0
0.978,-0.125,0,0,0,0,0
0.979,-0.3125,0,0,0,0,0
0.98,-0.4375,0,0,0,0,0
0.981,0.125,0,0,0,0,0
0.982,-0.125,0,0,0,0,0
0.983,-0.1875,0,0,0,0,0
0.984,-0.1875,0,0,0,0,0
0.985,-0.1875,0,0,0,0,0
0.986,0.375,0,0,0,0,0
0.987,0.625,0,0,0,0,0
0.988,1.4375,0,0,0,0,0
0.989,2,0,0,0,0,0
0.99,2.0625,0,0,0,0,0
0.991,2.1875,0,0,0,0,0
0.992,1.8125,0,0,0,0,0
0.993,1.5625,0,0,0,0,0
0.994,2,0,0,0,0,0
0.995,1.875,0,0,0,0,0
0.996,1.625,0,0,0,0,0
0.997,1.5625,0,0,0,0,0
0.998,2.3125,0,0,0,0,0
0.999,2.1875,0,0,0,0,0
1,1.375,0,0,0,0,0
1.001,1.5625,0,0,0,0,0
1.002,2.125,0,0,0,0,0
1.003,2.3125,0,0,0,0,0
1.004,3.25,0,0,0,0,0
1.005,3.25,0,0,0,0,0
1.006,2.125,0,0,0,0,0
1.007,2.3125,0,0,0,0,0
1.008,2.0625,0,0,0,0,0
1.009,1.6875,0,0,0,0,0
1.01,0.875,0,0,0,0,0
1.011,0.3125,0,0,0,0,0
1.012,0.3125,0,0,0,0,0
1.013,0.3125,0,0,0,0,0
1.014,1,0,0,0,0,0
1.015,0.9375,0,0,0,0,0
1.016,1.0625,0,0,0,0,0
1.017,1.5625,0,0,0,0,0
1.018,2.25,0,0,0,0,0
1.019,2.5,0,0,0,0,0
1.02,2.1875,0,0,0,0,0
1.021,2.1875,0,0,0,0,0
1.022,2.25,0,0,0,0,0
1.023,2.9375,0,0,0,0,0
1.024,1.5625,0,0,0,0,0
1.025,1.5625,0,0,0,0,0
1.026,1.375,0,0,0,0,0
1.027,0.75,0,0,0,0,0
1.028,1,0,0,0,0,0
1.029,0.75,0,0,0,0,0
1.03,1.375,0,0,0,0,0
1.031,1.375,0,0,0,0,0
1.032,0.8125,0,0,0,0,0
1.033,1.375,0,0,0,0,0
1.034,1.25,0,0,0,0,0
1.035,0.9375,0,0,0,0,0
1.036,0.875,0,0,0,0,0
1.037,0,0,0,0,0,0
1.038,0.625,0,0,0,0,0
1.039,1.5625,0,0,0,0,0
1.04,1.375,0,0,0,0,0
1.041,1.6875,0,0,0,0,0
1.042,1.75,0,0,0,0,0
1.043,2.3125,0,0,0,0,0
1.044,2.9375,0,0,0,0,0
1.045,2.625,0,0,0,0,0
1.046,2.75,0,0,0,0,0
1.047,3.125,0,0,0,0,0
1.048,2.625,0,0,0,0,0
1.049,2.3125,0,0,0,0,0
1.05,2.0625,0,0,0,0,0
1.051,1.0625,0,0,0,0,0
1.052,0.9375,0,0,0,0,0
1.053,1.25,0,0,0,0,0
1.054,1.4375,0,0,0,0,0
1.055,1.375,0,0,0,0,0
1.056,1.5,0,0,0,0,0
1.057,1.25,0,0,0,0,0
1.058,1.375,0,0,0,0,0
1.059,1.875,0,0,0,0,0
1.06,2.25,0,0,0,0,0
1.061,2.1875,0,0,0,0,0
1.062,2.3125,0,0,0,0,0
1.063,2.1875,0,0,0,0,0
1.064,2.8125,0,0,0,0,0
1.065,2.8125,0,0,0,0,0
1.066,2.625,0,0,0,0,0
1.067,2.8125,0,0,0,0,0
1.068,2.3125,0,0,0,0,0
1.069,2,0,0,0,0,0
1.07,2.625,0,0,0,0,0
1.071,2.3125,0,0,0,0,0
1.072,2.6875,0,0,0,0,0
1.073,2.8125,0,0,0,0,0
1.074,2.0625,0,0,0,0,0
1.075,2.1875,0,0,0,0,0
1.076,1.3125,0,0,0,0,0
1.077,0.3125,0,0,0,0,0
1.078,0.5625,0,0,0,0,0
1.079,0.625,0,0,0,0,0
1.08,1.3125,0,0,0,0,0
1.081,1.875,0,0,0,0,0
1.082,2.8125,0,0,0,0,0
1.083,2.625,0,0,0,0,0
1.084,1.625,0,0,0,0,0
1.085,1.25,0,0,0,0,0
1.086,1.75,0,0,0,0,0
1.087,2.3125,0,0,0,0,0
1.088,1.75,0,0,0,0,0
1.089,1.5625,0,0,0,0,0
1.09,1.25,0,0,0,0,0
1.091,1.375,0,0,0,0,0
1.092,1.8125,0,0,0,0,0
1.093,1.25,0,0,0,0,0
1.094,1.875,0,0,0,0,0
1.095,2.1875,0,0,0,0,0
1.096,2.4375,0,0,0,0,0
1.097,2.8125,0,0,0,0,0
1.098,4.0625,0,0,0,0,0
1.099,3.875,0,0,0,0,0
1.1,3.375,0,0,0,0,0
1.101,2.625,0,0,0,0,0
1.102,3.125,0,0,0,0,0
1.103,2.8125,0,0,0,0,0
1.104,2.8125,0,0,0,0,0
1.105,3.875,0,0,0,0,0
1.106,3.5625,0,0,0,0,0
1.107,4.1875,0,0,0,0,0
1.108,3.5,0,0,0,0,0
1.109,3.125,0,0,0,0,0
1.11,3.5,0,0,0,0,0
1.111,2.625,0,0,0,0,0
1.112,2.375,0,0,0,0,0
1.113,2.8125,0,0,0,0,0
1.114,2.3125,0,0,0,0,0
1.115,2.5,0,0,0,0,0
1.116,2.3125,0,0,0,0,0
1.117,2.5,0,0,0,0,0
1.118,2.9375,0,0,0,0,0
1.119,3.25,0,0,0,0,0
1.12,3.1875,0,0,0,0,0
1.121,3.5625,0,0,0,0,0
1.122,3.75,0,0,0,0,0
1.123,3.75,0,0,0,0,0
1.124,3.6875,0,0,0,0,0
1.125,3.75,0,0,0,0,0
1.126,3.875,0,0,0,0,0
1.127,3.875,0,0,0,0,0
1.128,4.3125,0,0,0,0,0
1.129,4.5,0,0,0,0,0
1.13,3.5,0,0,0,0,0
1.131,3.25,0,0,0,0,0
1.132,3,0,0,0,0,0
1.133,3.4375,0,0,0,0,0
1.134,3.75,0,0,0,0,0
1.135,4.1875,0,0,0,0,0
1.136,4.6875,0,0,0,0,0
1.137,4.1875,0,0,0,0,0
1.138,3.875,0,0,0,0,0
1.139,4.1875,0,0,0,0,0
1.14,4.4375,0,0,0,0,0
1.141,4.1875,0,0,0,0,0
1.142,4.1875,0,0,0,0,0
1.143,4.6875,0,0,0,0,0
1.144,4.75,0,0,0,0,0
1.145,4.8125,0,0,0,0,0
1.146,4.9375,0,0,0,0,0
1.147,5.3125,0,0,0,0,0
1.148,5.0625,0,0,0,0,0
1.149,5,0,0,0,0,0
1.15,4.875,0,0,0,0,0
1.151,4.8125,0,0,0,0,0
1.152,4.9375,0,0,0,0,0
1.153,4.375,0,0,0,0,0
1.154,4.6875,0,0,0,0,0
1.155,4.375,0,0,0,0,0
1.156,4.625,0,0,0,0,0
1.157,4.6875,0,0,0,0,0
1.158,5.375,0,0,0,0,0
1.159,5,0,0,0,0,0
1.16,4.625,0,0,0,0,0
1.161,5.4375,0,0,0,0,0
1.162,6.0625,0,0,0,0,0
1.163,5.75,0,0,0,0,0
1.164,5.25,0,0,0,0,0
1.165,5,0,0,0,0,0
1.166,4.9375,0,0,0,0,0
1.167,5.75,0,0,0,0,0
1.168,6.25,0,0,0,0,0
1.169,6.5625,0,0,0,0,0
1.17,6.3125,0,0,0,0,0
1.171,6.375,0,0,0,0,0
1.172,6.1875,0,0,0,0,0
1.173,6.375,0,0,0,0,0
1.174,7.375,0,0,0,0,0
1.175,8.4375,0,0,0,0,0
1.176,8.375,0,0,0,0,0
1.177,8.4375,0,0,0,0,0
1.178,8.25,0,0,0,0,0
1.179,7.5,0,0,0,0,0
1.18,7.4375,0,0,0,0,0
1.181,7.625,0,0,0,0,0
1.182,7.625,0,0,0,0,0
1.183,7.9375,0,0,0,0,0
1.184,8.0625,0,0,0,0,0
1.185,8.125,0,0,0,0,0
1.186,7.875,0,0,0,0,0
1.187,8.25,0,0,0,0,0
1.188,8.125,0,0,0,0,0
1.189,8.125,0,0,0,0,0
1.19,9.0625,0,0,0,0,0
1.191,8.75,0,0,0,0,0
1.192,8.9375,0,0,0,0,0
1.193,8.875,0,0,0,0,0
1.194,9.5,0,0,0,0,0
1.195,9.0625,0,0,0,0,0
1.196,8.625,0,0,0,0,0
1.197,9.0625,0,0,0,0,0
1.198,9.8125,0,0,0,0,0
1.199,9.6875,0,0,0,0,0
1.2,9.4375,0,0,0,0,0
1.201,9.6875,0,0,0,0,0
1.202,9.8125,0,0,0,0,0
1.203,9.375,0,0,0,0,0
1.204,9.875,0,0,0,0,0
1.205,9.6875,0,0,0,1,0
1.206,10,0,0,0,0,0
1.207,9.6875,0,0,0,0,0
1.208,9.25,0,0,0,0,0
1.209,9.375,0,0,0,0,0
1.21,9.4375,0,0,0,0,0
1.211,9.0625,0,0,0,0,0
1.212,8.125,0,0,0,0,0
1.213,7.9375,0,0,0,0,0
1.214,7.5,0,0,0,0,0
1.215,7.1875,0,0,0,0,0
1.216,7.8125,0,0,0,0,0
1.217,7.5,0,0,0,0,0
1.218,8.375,0,0,0,0,0
1.219,9.6875,0,0,0,0,0
1.22,8.8125,0,0,0,0,0
1.221,8.75,0,0,0,0,0
1.222,8.9375,0,0,0,0,0
1.223,9.0625,0,0,0,0,0
1.224,8.25,0,0,0,0,0
1.225,8.25,0,0,0,0,0
1.226,8.0625,0,0,0,0,0
1.227,7.9375,0,0,0,0,0
1.228,7.9375,0,0,0,0,0
1.229,7.9375,0,0,0,0,0
1.23,8.375,0,0,0,0,0
1.231,8.75,0,0,0,0,0
1.232,8.125,0,0,0,0,0
1.233,7.9375,0,0,0,0,0
1.234,8.4375,0,0,0,0,0
1.235,8.25,0,0,0,0,0
1.236,7.375,0,0,0,0,0
1.237,6.875,0,0,0,0,0
1.238,6.875,0,0,0,0,0
1.239,6.6875,0,0,0,0,0
1.24,6.875,0,0,0,0,0
1.241,6.6875,0,0,0,0,0
1.242,6.75,0,0,0,0,0
1.243,7.5,0,0,0,0,0
1.244,6.875,0,0,0,0,0
1.245,6.6875,0,0,0,0,0
1.246,6,0,0,0,0,0
1.247,6.375,0,0,0,0,0
1.248,7.0625,0,0,0,0,0
1.249,6.875,0,0,0,0,0
1.25,6.125,0,0,0,0,0
1.251,5.625,0,0,0,0,0
1.252,5.1875,0,0,0,0,0
1.253,5.4375,0,0,0,0,0
1.254,5.875,0,0,0,0,0
1.255,6.375,0,0,0,0,0
1.256,6.4375,0,0,0,0,0
1.257,6.6875,0,0,0,0,0
1.258,5.625,0,0,0,0,0
1.259,4.8125,0,0,0,0,0
1.26,5.0625,0,0,0,0,0
1.261,4.5,0,0,0,0,0
1.262,3.5625,0,0,0,0,0
1.263,3.5625,0,0,0,0,0
1.264,5.0625,0,0,0,0,0
1.265,4.6875,0,0,0,0,0
1.266,4.5625,0,0,0,0,0
1.267,5.125,0,0,0,0,0
1.268,5.5,0,0,0,0,0
1.269,5.3125,0,0,0,0,0
1.27,5.1875,0,0,0,0,0
1.271,4.8125,0,0,0,0,0
1.272,4.375,0,0,0,0,0
1.273,4.375,0,0,0,0,0
1.274,4.5,0,0,0,0,0
1.275,4.375,0,0,0,0,0
1.276,4.25,0,0,0,0,0
1.277,3.875,0,0,0,0,0
1.278,3.5,0,0,0,0,0
1.279,4.0625,0,0,0,0,0
1.28,3.75,0,0,0,0,0
1.281,3.875,0,0,0,0,0
1.282,4,0,0,0,0,0
1.283,4.6875,0,0,0,0,0
1.284,4.4375,0,0,0,0,0
1.285,4.6875,0,0,0,0,0
1.286,4.125,0,0,0,0,0
1.287,3.875,0,0,0,0,0
1.288,4.0625,0,0,0,0,0
1.289,3.25,0,0,0,0,0
1.29,2.875,0,0,0,0,0
1.291,2.9375,0,0,0,0,0
1.292,2.75,0,0,0,0,0
1.293,3.125,0,0,0,0,0
1.294,3.4375,0,0,0,0,0
1.295,3.4375,0,0,0,0,0
1.296,2.9375,0,0,0,0,0
1.297,2.9375,0,0,0,0,0
1.298,2.875,0,0,0,0,0
1.299,2.1875,0,0,0,0,0
1.3,2.0625,0,0,0,0,0
1.301,2.5,0,0,0,0,0
1.302,2.4375,0,0,0,0,0
1.303,2.3125,0,0,0,0,0
1.304,2,0,0,0,0,0
1.305,2,0,0,0,0,0
1.306,2.3125,0,0,0,0,0
1.307,3.25,0,0,0,0,0
1.308,3.5,0,0,0,0,0
1.309,3.4375,0,0,0,0,0
1.31,2.5,0,0,0,0,0
1.311,1.6875,0,0,0,0,1
1.312,1.5,0,0,0,0,0
1.313,1.25,0,0,0,0,0
1.314,2.3125,0,0,0,0,0
1.315,2.1875,0,0,0,0,0
1.316,2.3125,0,0,0,0,0
1.317,2.3125,0,0,0,0,0
1.318,3.25,0,0,0,0,0
1.319,3.5625,0,0,0,0,0
1.32,4.3125,0,0,0,0,0
1.321,4.375,0,0,0,0,0
1.322,4.5,0,0,0,0,0
1.323,4.5,0,0,0,0,0
1.324,4.125,0,0,0,0,0
1.325,3.125,0,0,0,0,0
1.326,3.375,0,0,0,0,0
1.327,3.75,0,0,0,0,0
1.328,3,0,0,0,0,0
1.329,2.9375,0,0,0,0,0
1.33,3.1875,0,0,0,0,0
1.331,2.3125,0,0,0,0,0
1.332,2.4375,0,0,0,0,0
1.333,2.3125,0,0,0,0,0
1.334,2.1875,0,0,0,0,0
1.335,1.875,0,0,0,0,0
1.336,2.25,0,0,0,0,0
1.337,2,0,0,0,0,0
1.338,2.5625,0,0,0,0,0
1.339,2.625,0,0,0,0,0
1.34,3.1875,0,0,0,0,0
1.341,3.125,0,0,0,0,0
1.342,2.1875,0,0,0,0,0
1.343,2.625,0,0,0,0,0
1.344,2.9375,0,0,0,0,0
1.345,2.8125,0,0,0,0,0
1.346,2.3125,0,0,0,0,0
1.347,2.625,0,0,0,0,0
1.348,2.5,0,0,0,0,0
1.349,2.8125,0,0,0,0,0
1.35,2.125,0,0,0,0,0
1.351,2.625,0,0,0,0,0
1.352,1.625,0,0,0,0,0
1.353,2,0,0,0,0,0
1.354,2.5625,0,0,0,0,0
1.355,3.125,0,0,0,0,0
1.356,2.5,0,0,0,0,0
1.357,2.625,0,0,0,0,0
1.358,1.125,0,0,0,0,0
1.359,0.9375,0,0,0,0,0
1.36,1.5,0,0,0,0,0
1.361,2.3125,0,0,0,0,0
1.362,2.3125,0,0,0,0,0
1.363,3.5625,0,0,0,0,0
1.364,3.5,0,0,0,0,0
1.365,3.75,0,0,0,0,0
1.366,3.5,0,0,0,0,0
1.367,2.8125,0,0,0,0,0
1.368,2.375,0,0,0,0,0
1.369,1.375,0,0,0,0,0
1.37,1.5625,0,0,0,0,0
1.371,1.5625,0,0,0,0,0
1.372,2,0,0,0,0,0
1.373,2.1875,0,0,0,0,0
1.374,2,0,0,0,0,0
1.375,2.1875,0,0,0,0,0
1.376,2.3125,0,0,0,0,0
1.377,2.5,0,0,0,0,0
1.378,2.5,0,0,0,0,0
1.379,2.1875,0,0,0,0,0
1.38,3.5625,0,0,0,0,0
1.381,4.1875,0,0,0,0,0
1.382,4.3125,0,0,0,0,0
1.383,4.375,0,0,0,0,0
1.384,4.375,0,0,0,0,0
1.385,4.1875,0,0,0,0,0
1.386,3.6875,0,0,0,0,0
1.387,3.75,0,0,0,0,0
1.388,4.3125,0,0,0,0,0
1.389,3.875,0,0,0,0,0
1.39,4,0,0,0,0,0
1.391,4.6875,0,0,0,0,0
1.392,4.125,0,0,0,0,0
1.393,3.75,0,0,0,0,0
1.394,3.75,0,0,0,0,0
1.395,4.1875,0,0,0,0,0
1.396,4.0625,0,0,0,0,0
1.397,4.5,0,0,0,0,0
1.398,5,0,0,0,0,0
1.399,4.5,0,0,0,0,0
1.4,3.9375,0,0,0,0,0
1.401,4.0625,0,0,0,0,0
1.402,3.8125,0,0,0,0,0
1.403,3.5625,0,0,0,0,0
1.404,2.625,0,0,0,0,0
1.405,2,0,0,0,0,0
1.406,1.6875,0,0,0,0,0
1.407,1.875,0,0,0,0,0
1.408,2.5,0,0,0,0,0
1.409,3.25,0,0,0,0,0
1.41,2.6875,0,0,0,0,0
1.411,3.25,0,0,0,0,0
1.412,3.0625,0,0,0,0,0
1.413,3.125,0,0,0,0,0
1.414,3.5,0,0,0,0,0
1.415,3.5625,0,0,0,0,0
1.416,3.4375,0,0,0,0,0
1.417,3.4375,0,0,0,0,0
1.418,3.25,0,0,0,0,0
1.419,3.4375,0,0,0,0,0
1.42,2.625,0,0,0,0,0
1.421,3.125,0,0,0,0,0
1.422,3.3125,0,0,0,0,0
1.423,3.125,0,0,0,0,0
1.424,3,0,0,0,0,0
1.425,2.1875,0,0,0,0,0
1.426,1.5,0,0,0,0,0
1.427,1.5625,0,0,0,0,0
1.428,2.25,0,0,0,0,0
1.429,2.3125,0,0,0,0,0
1.43,2.8125,0,0,0,0,0
1.431,3.875,0,0,0,0,0
1.432,4.25,0,0,0,0,0
1.433,4.375,0,0,0,0,0
1.434,4.3125,0,0,0,0,0
1.435,3.875,0,0,0,0,0
1.436,4.625,0,0,0,0,0
1.437,4.6875,0,0,0,0,0
1.438,4.4375,0,0,0,0,0
1.439,3.875,0,0,0,0,0
1.44,4.125,0,0,0,0,0
1.441,3.875,0,0,0,0,0
1.442,2.9375,0,0,0,0,0
1.443,2.3125,0,0,0,0,0
1.444,1.875,0,0,0,0,0
1.445,1.375,0,0,0,0,0
1.446,1.25,0,0,0,0,0
1.447,1.375,0,0,0,0,0
1.448,2.125,0,0,0,0,0
1.449,2.8125,0,0,0,0,0
1.45,2.625,0,0,0,0,0
1.451,2.5,0,0,0,0,0
1.452,2.375,0,0,0,0,0
1.453,2.8125,0,0,0,0,0
1.454,2.75,0,0,0,0,0
1.455,1.875,0,0,0,0,0
1.456,2.25,0,0,0,0,0
1.457,1.6875,0,0,0,0,0
1.458,2.3125,0,0,0,0,0
1.459,2.625,0,0,0,0,0
1.46,3.0625,0,0,0,0,0
1.461,2.9375,0,0,0,0,0
1.462,3.125,0,0,0,0,0
1.463,2.3125,0,0,0,0,0
1.464,2,0,0,0,0,0
1.465,2.1875,0,0,0,0,0
1.466,1.9375,0,0,0,0,0
1.467,2.1875,0,0,0,0,0
1.468,2.4375,0,0,0,0,0
1.469,3.125,0,0,0,0,0
1.47,3.1875,0,0,0,0,0
1.471,2.625,0,0,0,0,0
1.472,1.9375,0,0,0,0,0
1.473,1.5625,0,0,0,0,0
1.474,1.9375,0,0,0,0,0
1.475,2.1875,0,0,0,0,0
1.476,2.375,0,0,0,0,0
1.477,2.3125,0,0,0,0,0
1.478,2.3125,0,0,0,0,0
1.479,2.1875,0,0,0,0,0
1.48,3.1875,0,0,0,0,0
1.481,3.75,0,0,0,0,0
1.482,3.0625,0,0,0,0,0
1.483,3.4375,0,0,0,0,0
1.484,3.125,0,0,0,0,0
1.485,2.625,0,0,0,0,0
1.486,3.0625,0,0,0,0,0
1.487,2.9375,0,0,0,0,0
1.488,3.5,0,0,0,0,0
1.489,4.0625,0,0,0,0,0
1.49,3.625,0,0,0,0,0
1.491,2.9375,0,0,0,0,0
1.492,2.75,0,0,0,0,0
1.493,2.8125,0,0,0,0,0
1.494,3.0625,0,0,0,0,0
1.495,3.25,0,0,0,0,0
1.496,3.125,0,0,0,0,0
1.497,2.625,0,0,0,0,0
1.498,3.125,0,0,0,0,0
1.499,3.5625,0,0,0,0,0
1.5,3.125,0,0,0,0,0
1.501,3.5625,0,0,0,0,0
1.502,3.4375,0,0,0,0,0
1.503,2.8125,0,0,0,0,0
1.504,3.25,0,0,0,0,0
1.505,3.125,0,0,0,0,0
1.506,2.9375,0,0,0,0,0
1.507,2.625,0,0,0,0,0
1.508,3.125,0,0,0,0,0
1.509,2.8125,0,0,0,0,0
1.51,1.875,0,0,0,0,0
1.511,1.5625,0,0,0,0,0
1.512,1.8125,0,0,0,0,0
1.513,1.6875,0,0,0,0,0
1.514,1.875,0,0,0,0,0
1.515,1.5625,0,0,0,0,0
1.516,1.5625,0,0,0,0,0
1.517,1.5625,0,0,0,0,0
1.518,2,0,0,0,0,0
1.519,2.3125,0,0,0,0,0
1.52,2.75,0,0,0,0,0
1.521,3.25,0,0,0,0,0
1.522,3.5,0,0,0,0,0
1.523,3.4375,0,0,0,0,0
1.524,2.5,0,0,0,0,0
1.525,2,0,0,0,0,0
1.526,2.0625,0,0,0,0,0
1.527,2,0,0,0,0,0
1.528,2.125,0,0,0,0,0
1.529,2.625,0,0,0,0,0
1.53,2.6875,0,0,0,0,0
1.531,2.8125,0,0,0,0,0
1.532,2.5,0,0,0,0,0
1.533,2.625,0,0,0,0,0
1.534,2.875,0,0,0,0,0
1.535,2.625,0,0,0,0,0
1.536,2.6875,0,0,0,0,0
1.537,2.625,0,0,0,0,0
1.538,2.5,0,0,0,0,0
1.539,1.875,0,0,0,0,0
1.54,2.25,0,0,0,0,0
1.541,1.6875,0,0,0,0,0
1.542,1.9375,0,0,0,0,0
1.543,2,0,0,0,0,0
1.544,2,0,0,0,0,0
1.545,1.5625,0,0,0,0,0
1.546,1.3125,0,0,0,0,0
1.547,2,0,0,0,0,0
1.548,1.1875,0,0,0,0,0
1.549,1.5625,0,0,0,0,0
1.55,2.4375,0,0,0,0,0
1.551,2.3125,0,0,0,0,0
1.552,2.125,0,0,0,0,0
1.553,2.5,0,0,0,0,0
1.554,2.375,0,0,0,0,0
1.555,2.3125,0,0,0,0,0
1.556,2.9375,0,0,0,0,0
1.557,3.125,0,0,0,0,0
1.558,4.25,0,0,0,0,0
1.559,3.875,0,0,0,0,0
1.56,3.6875,0,0,0,0,0
1.561,3.4375,0,0,0,0,0
1.562,3.875,0,0,0,0,0
1.563,3.25,0,0,0,0,0
1.564,2.875,0,0,0,0,0
1.565,2.8125,0,0,0,0,0
1.566,2.1875,0,0,0,0,0
1.567,2.3125,0,0,0,0,0
1.568,2.25,0,0,0,0,0
1.569,2,0,0,0,0,0
1.57,1.6875,0,0,0,0,0
1.571,2.3125,0,0,0,0,0
1.572,2.4375,0,0,0,0,0
1.573,2.1875,0,0,0,0,0
1.574,1.9375,0,0,0,0,0
1.575,1.6875,0,0,0,0,0
1.576,1.625,0,0,0,0,0
1.577,1.6875,0,0,0,0,0
1.578,1.8125,0,0,0,0,0
1.579,1.6875,0,0,0,0,0
1.58,1.3125,0,0,0,0,0
1.581,1.6875,0,0,0,0,0
1.582,2.625,0,0,0,0,0
1.583,2.8125,0,0,0,0,0
1.584,2.6875,0,0,0,0,0
1.585,2.3125,0,0,0,0,0
1.586,1.9375,0,0,0,0,0
1.587,2.1875,0,0,0,0,0
1.588,2.0625,0,0,0,0,0
1.589,1.6875,0,0,0,0,0
1.59,1.9375,0,0,0,0,0
1.591,2.1875,0,0,0,0,0
1.592,2.0625,0,0,0,0,0
1.593,2.3125,0,0,0,0,0
1.594,2.8125,0,0,0,0,0
1.595,3.125,0,0,0,0,0
1.596,3.3125,0,0,0,0,0
1.597,3.5625,0,0,0,0,0
1.598,3.875,0,0,0,0,0
1.599,3.875,0,0,0,0,0
1.6,2.25,0,0,0,0,0
1.601,0.75,0,0,0,0,0
1.602,1.4375,0,0,0,0,0
1.603,1.875,0,0,0,0,0
1.604,1.6875,0,0,0,0,0
1.605,2.3125,0,0,0,0,0
1.606,1.6875,0,0,0,0,0
1.607,1.6875,0,0,0,0,0
1.608,1.8125,0,0,0,0,0
1.609,2,0,0,0,0,0
1.61,2.1875,0,0,0,0,0
1.611,2,0,0,0,0,0
1.612,2.25,0,0,0,0,0
1.613,2.3125,0,0,0,0,0
1.614,2.3125,0,0,0,0,0
1.615,2.5,0,0,0,0,0
1.616,2.5625,0,0,0,0,0
1.617,2.9375,0,0,0,0,0
1.618,2.125,0,0,0,0,0
1.619,1.875,0,0,0,0,0
1.62,1.375,0,0,0,0,0
1.621,1.25,0,0,0,0,0
1.622,1.1875,0,0,0,0,0
1.623,1.25,0,0,0,0,0
1.624,1.5625,0,0,0,0,0
1.625,1.875,0,0,0,0,0
1.626,2,0,0,0,0,0
1.627,2.625,0,0,0,0,0
1.628,2.5625,0,0,0,0,0
1.629,2.1875,0,0,0,0,0
1.63,2.5625,0,0,0,0,0
1.631,2.8125,0,0,0,0,0
1.632,1.5625,0,0,0,0,0
1.633,1.6875,0,0,0,0,0
1.634,2.25,0,0,0,0,0
1.635,2.5,0,0,0,0,0
1.636,4.6875,0,0,0,0,0
1.637,6.875,0,0,0,0,0
1.638,6.375,0,0,0,0,0
1.639,5.75,0,0,0,0,0
1.64,4.6875,0,0,0,0,0
1.641,3.75,0,0,0,0,0
1.642,1.1875,0,0,0,0,0
1.643,-0.625,0,0,0,0,0
1.644,0.4375,0,0,0,0,0
1.645,1.25,0,0,0,0,0
1.646,2.25,0,0,0,0,0
1.647,3.4375,0,0,0,0,0
1.648,3.375,0,0,0,0,0
1.649,3.5625,0,0,0,0,0
1.65,2.6875,0,0,0,0,0
1.651,2.3125,0,0,0,0,0
1.652,2.4375,0,0,0,0,0
1.653,2.1875,0,0,0,0,0
1.654,2.375,0,0,0,0,0
1.655,2.1875,0,0,0,0,0
1.656,2.375,0,0,0,0,0
1.657,1.5625,0,0,0,0,0
1.658,2,0,0,0,0,0
1.659,1.875,0,0,0,0,0
1.66,2.125,0,0,0,0,0
1.661,2.625,0,0,0,0,0
1.662,2.875,0,0,0,0,0
1.663,3.125,0,0,0,0,0
1.664,3.3125,0,0,0,0,0
1.665,3.125,0,0,0,0,0
1.666,2.75,0,0,0,0,0
1.667,2.5,0,0,0,0,0
1.668,1.9375,0,0,0,0,0
1.669,1.875,0,0,0,0,0
1.67,2.5,0,0,0,0,0
1.671,2.9375,0,0,0,0,0
1.672,3.0625,0,0,0,0,0
1.673,3.25,0,0,0,0,0
1.674,2.625,0,0,0,0,0
1.675,2.625,0,0,0,0,0
1.676,2.0625,0,0,0,0,0
1.677,1.25,0,0,0,0,0
1.678,1.375,0,0,0,0,0
1.679,0.9375,0,0,0,0,0
1.68,2.0625,0,0,0,0,0
1.681,2.3125,0,0,0,0,0
1.682,3.4375,0,0,0,0,0
1.683,3.875,0,0,0,0,0
1.684,3.625,0,0,0,0,0
1.685,3.4375,0,0,0,0,0
1.686,2.8125,0,0,0,0,0
1.687,2.9375,0,0,0,0,0
1.688,3.125,0,0,0,0,0
1.689,3.125,0,0,0,0,0
1.69,2.0625,0,0,0,0,0
1.691,1.5625,0,0,0,0,0
1.692,1.6875,0,0,0,0,0
1.693,2,0,0,0,0,0
1.694,2.125,0,0,0,0,0
1.695,2,0,0,0,0,0
1.696,2.6875,0,0,0,0,0
1.697,3.125,0,0,0,0,0
1.698,1.8125,0,0,0,0,0
1.699,1.25,0,0,0,0,0
1.7,1.6875,0,0,0,0,0
1.701,2.1875,0,0,0,0,0
1.702,2.125,0,0,0,0,0
1.703,2,0,0,0,0,0
1.704,0.9375,0,0,0,0,0
1.705,0.625,0,0,0,0,0
1.706,1.1875,0,0,0,0,0
1.707,1.6875,0,0,0,0,0
1.708,1.875,0,0,0,0,0
1.709,2.625,0,0,0,0,0
1.71,3.25,0,0,0,0,0
1.711,2.8125,0,0,0,0,0
1.712,4,0,0,0,0,0
1.713,4.1875,0,0,0,0,0
1.714,4.375,0,0,0,0,0
1.715,4.6875,0,0,0,0,0
1.716,3.9375,0,0,0,0,0
1.717,3.75,0,0,0,0,0
1.718,4.0625,0,0,0,0,0
1.719,3.75,0,0,0,0,0
1.72,3.0625,0,0,0,0,0
1.721,2.9375,0,0,0,0,0
1.722,3.6875,0,0,0,0,0
1.723,4.375,0,0,0,0,0
1.724,3.125,0,0,0,0,0
1.725,3.5625,0,0,0,0,0
1.726,4.1875,0,0,0,0,0
1.727,3.875,0,0,0,0,0
1.728,3.75,0,0,0,0,0
1.729,4.0625,0,0,0,0,0
1.73,4.0625,0,0,0,0,0
1.731,4.0625,0,0,0,0,0
1.732,4.75,0,0,0,0,0
1.733,5.3125,0,0,0,0,0
1.734,5.5,0,0,0,0,0
1.735,5.4375,0,0,0,0,0
1.736,4.3125,0,0,0,0,0
1.737,3.5625,0,0,0,0,0
1.738,3.75,0,0,0,0,0
1.739,3.4375,0,0,0,0,0
1.74,3.5625,0,0,0,0,0
1.741,3.125,0,0,0,0,0
1.742,3.25,0,0,0,0,0
1.743,3.125,0,0,0,0,0
1.744,3.3125,0,0,0,0,0
1.745,3.75,0,0,0,0,0
1.746,3.5625,0,0,0,0,0
1.747,3.4375,0,0,0,0,0
1.748,3.4375,0,0,0,0,0
1.749,3.75,0,0,0,0,0
1.75,4,0,0,0,0,0
1.751,3.875,0,0,0,0,0
1.752,3.0625,0,0,0,0,0
1.753,3.125,0,0,0,0,0
1.754,3.375,0,0,0,0,0
1.755,3.5625,0,0,0,0,0
1.756,3.4375,0,0,0,0,0
1.757,3.25,0,0,0,0,0
1.758,3.875,0,0,0,0,0
1.759,4.0625,0,0,0,0,0
1.76,4.8125,0,0,0,0,0
1.761,4.6875,0,0,0,0,0
1.762,3.875,0,0,0,0,0
1.763,4.0625,0,0,0,0,0
1.764,4.3125,0,0,0,0,0
1.765,4.1875,0,0,0,0,0
1.766,3.75,0,0,0,0,0
1.767,4.0625,0,0,0,0,0
1.768,4.25,0,0,0,0,0
1.769,3.75,0,0,0,0,0
1.77,3.5625,0,0,0,0,0
1.771,3.5625,0,0,0,0,0
1.772,3.9375,0,0,0,0,0
1.773,4.0625,0,0,0,0,0
1.774,3.9375,0,0,0,0,0
1.775,3.875,0,0,0,0,0
1.776,3.3125,0,0,0,0,0
1.777,2.8125,0,0,0,0,0
1.778,2.9375,0,0,0,0,0
1.779,2.8125,0,0,0,0,0
1.78,2.375,0,0,0,0,0
1.781,2.5,0,0,0,0,0
1.782,2.3125,0,0,0,0,0
1.783,2.1875,0,0,0,0,0
1.784,1.5,0,0,0,0,0
1.785,0.9375,0,0,0,0,0
1.786,0.75,0,0,0,0,0
1.787,0.4375,0,0,0,0,0
1.788,0.8125,0,0,0,0,0
1.789,1.5625,0,0,0,0,0
1.79,1.875,0,0,0,0,0
1.791,2.3125,0,0,0,0,0
1.792,1.25,0,0,0,0,0
1.793,0.9375,0,0,0,0,0
1.794,1.375,0,0,0,0,0
1.795,1.375,0,0,0,0,0
1.796,1.5,0,0,0,0,0
1.797,1.6875,0,0,0,0,0
1.798,1.9375,0,0,0,0,0
1.799,2,0,0,0,0,0
1.8,1.75,0,0,0,0,0
1.801,1.5625,0,0,0,0,0
1.802,1.9375,0,0,0,0,0
1.803,2.625,0,0,0,0,0
1.804,2.125,0,0,0,0,0
1.805,2,0,0,0,0,0
1.806,2.5,0,0,0,0,0
1.807,1.6875,0,0,0,0,0
1.808,1.625,0,0,0,0,0
1.809,1.375,0,0,0,0,0
1.81,1.375,0,0,0,0,0
1.811,1.6875,0,0,0,0,0
1.812,2.0625,0,0,0,0,0
1.813,1.6875,0,0,0,0,0
1.814,1.1875,0,0,0,0,0
1.815,0.75,0,0,0,0,0
1.816,1.375,0,0,0,0,0
1.817,1.5625,0,0,0,0,0
1.818,1.75,0,0,0,0,0
1.819,1.375,0,0,0,0,0
1.82,1.125,0,0,0,0,0
1.821,2,0,0,0,0,0
1.822,1.75,0,0,0,0,0
1.823,1.6875,0,0,0,0,0
1.824,1.0625,0,0,0,0,0
1.825,1.0625,0,0,0,0,0
1.826,1.0625,0,0,0,0,0
1.827,1.375,0,0,0,0,0
1.828,1.5,0,0,0,0,0
1.829,1.25,0,0,0,0,0
1.83,2.1875,0,0,0,0,0
1.831,2.1875,0,0,0,0,0
1.832,2.3125,0,0,0,0,0
1.833,3.125,0,0,0,0,0
1.834,3.25,0,0,0,0,0
1.835,3.4375,0,0,0,0,0
1.836,3.1875,0,0,0,0,0
1.837,3.4375,0,0,0,0,0
1.838,3.75,0,0,0,0,0
1.839,3.125,0,0,0,0,0
1.84,2.375,0,0,0,0,0
1.841,1.25,0,0,0,0,0
1.842,1.4375,0,0,0,0,0
1.843,1.5625,0,0,0,0,0
1.844,0.9375,0,0,0,0,0
1.845,0.9375,0,0,0,0,0
1.846,0.875,0,0,0,0,0
1.847,0.625,0,0,0,0,0
1.848,0.625,0,0,0,0,0
1.849,0.75,0,0,0,0,0
1.85,0.625,0,0,0,0,0
1.851,0.75,0,0,0,0,0
1.852,1.625,0,0,0,0,0
1.853,2,0,0,0,0,0
1.854,1.75,0,0,0,0,0
1.855,1.6875,0,0,0,0,0
1.856,1.5625,0,0,0,0,0
1.857,1.0625,0,0,0,0,0
1.858,1.6875,0,0,0,0,0
1.859,1.25,0,0,0,0,0
1.86,1.5625,0,0,0,0,0
1.861,1.6875,0,0,0,0,0
1.862,1.0625,0,0,0,0,0
1.863,1.875,0,0,0,0,0
1.864,1.625,0,0,0,0,0
1.865,0.9375,0,0,0,0,0
1.866,1.5625,0,0,0,0,0
1.867,1.375,0,0,0,0,0
1.868,1.375,0,0,0,0,0
1.869,1.6875,0,0,0,0,0
1.87,2.25,0,0,0,0,0
1.871,2.9375,0,0,0,0,0
1.872,2.625,0,0,0,0,0
1.873,2.625,0,0,0,0,0
1.874,2.3125,0,0,0,0,0
1.875,1.6875,0,0,0,0,0
1.876,1.25,0,0,0,0,0
1.877,1.5625,0,0,0,0,0
1.878,1.5625,0,0,0,0,0
1.879,1.875,0,0,0,0,0
1.88,2.0625,0,0,0,0,0
1.881,2.1875,0,0,0,0,0
1.882,2.0625,0,0,0,0,0
1.883,2,0,0,0,0,0
1.884,1.25,0,0,0,0,0
1.885,0.625,0,0,0,0,0
1.886,0.25,0,0,0,0,0
1.887,0.75,0,0,0,0,0
1.888,0.75,0,0,0,0,0
1.889,1.0625,0,0,0,0,0
1.89,1.5,0,0,0,0,0
1.891,0.9375,0,0,0,0,0
1.892,0.3125,0,0,0,0,0
1.893,-0.3125,0,0,0,0,0
1.894,0.5,0,0,0,0,0
1.895,0.75,0,0,0,0,0
1.896,1.625,0,0,0,0,0
1.897,2,0,0,0,0,0
1.898,2.0625,0,0,0,0,0
1.899,1.25,0,0,0,0,0
1.9,1.5,0,0,0,0,0
1.901,1.6875,0,0,0,0,0
1.902,1.5625,0,0,0,0,0
1.903,1.6875,0,0,0,0,0
1.904,1.375,0,0,0,0,0
1.905,1.375,0,0,0,0,0
1.906,0.9375,0,0,0,0,0
1.907,0.75,0,0,0,0,0
1.908,-0.1875,0,0,0,0,0
1.909,0.3125,0,0,0,0,0
1.91,1.6875,0,0,0,0,0
1.911,2.8125,0,0,0,0,0
1.912,2.9375,0,0,0,0,0
1.913,2.5,0,0,0,0,0
1.914,2.4375,0,0,0,0,0
1.915,3.125,0,0,0,0,0
1.916,2.1875,0,0,0,0,0
1.917,2.8125,0,0,0,0,0
1.918,3.875,0,0,0,0,0
1.919,4.5,0,0,0,0,0
1.92,4.625,0,0,0,0,0
1.921,5.3125,0,0,0,0,0
1.922,5.4375,0,0,0,0,0
1.923,5.4375,0,0,0,0,0
1.924,5.25,0,0,0,0,0
1.925,5.625,0,0,0,0,0
1.926,5.625,0,0,0,0,0
1.927,5.125,0,0,0,0,0
1.928,4.25,0,0,0,0,0
1.929,3.125,0,0,0,0,0
1.93,3,0,0,0,0,0
1.931,3.25,0,0,0,0,0
1.932,3.3125,0,0,0,0,0
1.933,3.4375,0,0,0,0,0
1.934,3.375,0,0,0,0,0
1.935,3.25,0,0,0,0,0
1.936,3.375,0,0,0,0,0
1.937,3.125,0,0,0,0,0
1.938,3,0,0,0,0,0
1.939,2.5,0,0,0,0,0
1.94,2.3125,0,0,0,0,0
1.941,1.5625,0,0,0,0,0
1.942,0.6875,0,0,0,0,0
1.943,0.625,0,0,0,0,0
1.944,0,0,0,0,0,0
1.945,-0.625,0,0,0,0,0
1.946,-0.9375,0,0,0,0,0
1.947,-0.625,0,0,0,0,0
1.948,-2.5,0,0,0,0,0
1.949,-3.625,0,0,0,0,0
1.95,-3.5,1,0,0,0,0
1.951,-3.9375,0,0,0,0,0
1.952,-3.75,0,0,0,0,0
1.953,-4.0625,0,0,0,0,0
1.954,-3.875,0,0,0,0,0
1.955,-3.9375,0,0,0,0,0
1.956,-4,0,0,0,0,0
1.957,-4.6875,0,0,0,0,0
1.958,-6.125,0,0,0,0,0
1.959,-8.625,0,0,0,0,0
1.96,-12.375,0,0,0,0,0
1.961,-16.125,0,0,0,0,0
1.962,-17.938,0,0,0,0,0
1.963,-20.313,0,0,0,0,0
1.964,-23.188,0,0,0,0,0
1.965,-25.188,0,0,0,0,0
1.966,-26.625,0,1,0,0,0
1.967,-28.313,0,0,0,0,0
1.968,-28,0,0,0,0,0
1.969,-27.375,0,0,0,0,0
1.97,-27.688,0,0,0,0,0
1.971,-26.875,0,0,0,0,0
1.972,-24.813,0,0,0,0,0
1.973,-23,0,0,0,0,0
1.974,-22.063,0,0,0,0,0
1.975,-21.25,0,0,0,0,0
1.976,-19.313,0,0,0,0,0
1.977,-18,0,0,0,0,0
1.978,-17.875,0,0,0,0,0
1.979,-17.813,0,0,0,0,0
1.98,-15.313,0,0,0,0,0
1.981,-12.188,0,0,0,0,0
1.982,-9.6875,0,0,0,0,0
1.983,-7.0625,0,0,0,0,0
1.984,-5.5625,0,0,0,0,0
1.985,-4.5625,0,0,0,0,0
1.986,-3.0625,0,0,0,0,0
1.987,-2.375,0,0,0,0,0
1.988,-0.5625,0,0,0,0,0
1.989,0.9375,0,0,0,0,0
1.99,1.5,0,0,0,0,0
1.991,1.375,0,0,0,0,0
1.992,1.875,0,0,0,0,0
1.993,2,0,0,1,0,0
1.994,2.5625,0,0,0,0,0
1.995,2.625,0,0,0,0,0
1.996,2.25,0,0,0,0,0
1.997,2,0,0,0,0,0
1.998,2.125,0,0,0,0,0
1.999,1.6875,0,0,0,0,0
2,1.125,0,0,0,0,0
2.001,1.6875,0,0,0,0,0
2.002,1.75,0,0,0,0,0
2.003,2,0,0,0,0,0
2.004,2.25,0,0,0,0,0
2.005,2.1875,0,0,0,0,0
2.006,1.8125,0,0,0,0,0
2.007,1.6875,0,0,0,0,0
2.008,1.6875,0,0,0,0,0
2.009,1.6875,0,0,0,0,0
2.01,1.3125,0,0,0,0,0
2.011,1.25,0,0,0,0,0
2.012,1.4375,0,0,0,0,0
2.013,1.5625,0,0,0,0,0
2.014,1.625,0,0,0,0,0
2.015,2,0,0,0,0,0
2.016,2.375,0,0,0,0,0
2.017,2,0,0,0,0,0
2.018,2.4375,0,0,0,0,0
2.019,2.8125,0,0,0,0,0
2.02,3.5625,0,0,0,0,0
2.021,3.125,0,0,0,0,0
2.022,3.9375,0,0,0,0,0
2.023,4.8125,0,0,0,0,0
2.024,3.25,0,0,0,0,0
2.025,3.125,0,0,0,0,0
2.026,3.75,0,0,0,0,0
2.027,4.0625,0,0,0,0,0
2.028,3.6875,0,0,0,0,0
2.029,3.125,0,0,0,0,0
2.03,2.4375,0,0,0,0,0
2.031,1.0625,0,0,0,0,0
2.032,0.625,0,0,0,0,0
2.033,0.3125,0,0,0,0,0
2.034,0.75,0,0,0,0,0
2.035,0,0,0,0,0,0
2.036,-0.125,0,0,0,0,0
2.037,-0.3125,0,0,0,0,0
2.038,-0.125,0,0,0,0,0
2.039,-0.1875,0,0,0,0,0
2.04,0.0625,0,0,0,0,0
2.041,0.3125,0,0,0,0,0
2.042,-0.0625,0,0,0,0,0
2.043,0,0,0,0,0,0
2.044,-0.0625,0,0,0,0,0
2.045,0.4375,0,0,0,0,0
2.046,0.5625,0,0,0,0,0
2.047,0.9375,0,0,0,0,0
2.048,1.3125,0,0,0,0,0
2.049,1.6875,0,0,0,0,0
2.05,2.0625,0,0,0,0,0
2.051,2,0,0,0,0,0
2.052,2.25,0,0,0,0,0
2.053,2.1875,0,0,0,0,0
2.054,1.8125,0,0,0,0,0
2.055,1.5625,0,0,0,0,0
2.056,1.1875,0,0,0,0,0
2.057,0.75,0,0,0,0,0
2.058,0.75,0,0,0,0,0
2.059,0.125,0,0,0,0,0
2.06,0.25,0,0,0,0,0
2.061,0.4375,0,0,0,0,0
2.062,1.25,0,0,0,0,0
2.063,1.0625,0,0,0,0,0
2.064,0.25,0,0,0,0,0
2.065,0.3125,0,0,0,0,0
2.066,0.4375,0,0,0,0,0
2.067,0.125,0,0,0,0,0
2.068,1.6875,0,0,0,0,0
2.069,2.3125,0,0,0,0,0
2.07,2.0625,0,0,0,0,0
2.071,3.25,0,0,0,0,0
2.072,2.9375,0,0,0,0,0
2.073,2.5,0,0,0,0,0
2.074,2.5625,0,0,0,0,0
2.075,2.9375,0,0,0,0,0
2.076,3.4375,0,0,0,0,0
2.077,3.875,0,0,0,0,0
2.078,4.875,0,0,0,0,0
2.079,5.125,0,0,0,0,0
2.08,4.125,0,0,0,0,0
2.081,3.4375,0,0,0,0,0
2.082,2.5625,0,0,0,0,0
2.083,1.25,0,0,0,0,0
2.084,0.1875,0,0,0,0,0
2.085,-0.625,0,0,0,0,0
2.086,-0.5625,0,0,0,0,0
2.087,0.125,0,0,0,0,0
2.088,-0.375,0,0,0,0,0
2.089,0.4375,0,0,0,0,0
2.09,0.625,0,0,0,0,0
2.091,0.3125,0,0,0,0,0
2.092,0.5625,0,0,0,0,0
2.093,0.3125,0,0,0,0,0
2.094,0.9375,0,0,0,0,0
2.095,0.9375,0,0,0,0,0
2.096,1.375,0,0,0,0,0
2.097,2.9375,0,0,0,0,0
2.098,2.8125,0,0,0,0,0
2.099,2.5,0,0,0,0,0
2.1,2.3125,0,0,0,0,0
2.101,1.375,0,0,0,0,0
2.102,1.25,0,0,0,0,0
2.103,1.375,0,0,0,0,0
2.104,1.5,0,0,0,0,0
2.105,2,0,0,0,0,0
2.106,1.1875,0,0,0,0,0
2.107,0.75,0,0,0,0,0
2.108,2.125,0,0,0,0,0
2.109,2.625,0,0,0,0,0
2.11,2.5625,0,0,0,0,0
2.111,2.625,0,0,0,0,0
2.112,2.4375,0,0,0,0,0
2.113,2.5,0,0,0,0,0
2.114,2.6875,0,0,0,0,0
2.115,2.3125,0,0,0,0,0
2.116,2.0625,0,0,0,0,0
2.117,2.3125,0,0,0,0,0
2.118,2.75,0,0,0,0,0
2.119,2.9375,0,0,0,0,0
2.12,3.0625,0,0,0,0,0
2.121,2.8125,0,0,0,0,0
2.122,2.25,0,0,0,0,0
2.123,2,0,0,0,0,0
2.124,2.4375,0,0,0,0,0
2.125,2.3125,0,0,0,0,0
2.126,2.1875,0,0,0,0,0
2.127,1.6875,0,0,0,0,0
2.128,2.0625,0,0,0,0,0
2.129,1.875,0,0,0,0,0
2.13,1.5625,0,0,0,0,0
2.131,1.5625,0,0,0,0,0
2.132,1.25,0,0,0,0,0
2.133,1.0625,0,0,0,0,0
2.134,1.5,0,0,0,0,0
2.135,0.9375,0,0,0,0,0
2.136,1.25,0,0,0,0,0
2.137,1.375,0,0,0,0,0
2.138,1.5625,0,0,0,0,0
2.139,2.5,0,0,0,0,0
2.14,2.375,0,0,0,0,0
2.141,2.1875,0,0,0,0,0
2.142,2.4375,0,0,0,0,0
2.143,2.3125,0,0,0,0,0
2.144,2.1875,0,0,0,0,0
2.145,1.875,0,0,0,0,0
2.146,2.4375,0,0,0,0,0
2.147,1.875,0,0,0,0,0
2.148,1.5,0,0,0,0,0
2.149,1.875,0,0,0,0,0
2.15,1.6875,0,0,0,0,0
2.151,1.375,0,0,0,0,0
2.152,1.3125,0,0,0,0,0
2.153,1.5625,0,0,0,0,0
2.154,1.9375,0,0,0,0,0
2.155,2.8125,0,0,0,0,0
2.156,3.375,0,0,0,0,0
2.157,2.9375,0,0,0,0,0
2.158,3.375,0,0,0,0,0
2.159,3.4375,0,0,0,0,0
2.16,3.5,0,0,0,0,0
2.161,3.5625,0,0,0,0,0
2.162,4.75,0,0,0,0,0
2.163,4.5,0,0,0,0,0
2.164,4.1875,0,0,0,0,0
2.165,3.75,0,0,0,0,0
2.166,4.375,0,0,0,0,0
2.167,4.1875,0,0,0,0,0
2.168,3.8125,0,0,0,0,0
2.169,4.5,0,0,0,0,0
2.17,4.3125,0,0,0,0,0
2.171,5.125,0,0,0,0,0
2.172,4.625,0,0,0,0,0
2.173,4.5,0,0,0,0,0
2.174,5.3125,0,0,0,0,0
2.175,4.8125,0,0,0,0,0
2.176,3.6875,0,0,0,0,0
2.177,3.125,0,0,0,0,0
2.178,2.6875,0,0,0,0,0
2.179,2.8125,0,0,0,0,0
2.18,2.4375,0,0,0,0,0
2.181,2.3125,0,0,0,0,0
2.182,2.9375,0,0,0,0,0
2.183,3.4375,0,0,0,0,0
2.184,3,0,0,0,0,0
2.185,2.9375,0,0,0,0,0
2.186,3.1875,0,0,0,0,0
2.187,3.25,0,0,0,0,0
2.188,3.5,0,0,0,0,0
2.189,3.875,0,0,0,0,0
2.19,4.375,0,0,0,0,0
2.191,4.6875,0,0,0,0,0
2.192,4.75,0,0,0,0,0
2.193,4.6875,0,0,0,0,0
2.194,4.0625,0,0,0,0,0
2.195,4.1875,0,0,0,0,0
2.196,3.8125,0,0,0,0,0
2.197,4.1875,0,0,0,0,0
2.198,3.875,0,0,0,0,0
2.199,3.5625,0,0,0,0,0
2.2,4.25,0,0,0,0,0
2.201,4.0625,0,0,0,0,0
2.202,4.0625,0,0,0,0,0
2.203,4.6875,0,0,0,0,0
2.204,5.1875,0,0,0,0,0
2.205,5.3125,0,0,0,0,0
2.206,5.0625,0,0,0,0,0
2.207,5.3125,0,0,0,0,0
2.208,5.1875,0,0,0,0,0
2.209,5.125,0,0,0,0,0
2.21,4.4375,0,0,0,0,0
2.211,3.875,0,0,0,0,0
2.212,4.375,0,0,0,0,0
2.213,5,0,0,0,0,0
2.214,5.0625,0,0,0,0,0
2.215,5.125,0,0,0,0,0
2.216,5.6875,0,0,0,0,0
2.217,5.625,0,0,0,0,0
2.218,5.8125,0,0,0,0,0
2.219,5.3125,0,0,0,0,0
2.22,5.75,0,0,0,0,0
2.221,6.0625,0,0,0,0,0
2.222,6.875,0,0,0,0,0
2.223,6.5625,0,0,0,0,0
2.224,6.0625,0,0,0,0,0
2.225,6.875,0,0,0,0,0
2.226,7.25,0,0,0,0,0
2.227,6.6875,0,0,0,0,0
2.228,5.8125,0,0,0,0,0
2.229,5.3125,0,0,0,0,0
2.23,4.75,0,0,0,0,0
2.231,5,0,0,0,0,0
2.232,5.375,0,0,0,0,0
2.233,5.625,0,0,0,0,0
2.234,5.8125,0,0,0,0,0
2.235,6.375,0,0,0,0,0
2.236,6.1875,0,0,0,0,0
2.237,6.375,0,0,0,0,0
2.238,6.4375,0,0,0,0,0
2.239,6.375,0,0,0,0,0
2.24,6.75,0,0,0,0,0
2.241,7.3125,0,0,0,0,0
2.242,7.625,0,0,0,0,0
2.243,7.3125,0,0,0,0,0
2.244,7.5625,0,0,0,0,0
2.245,8.125,0,0,0,0,0
2.246,7.625,0,0,0,0,0
2.247,7.5,0,0,0,0,0
2.248,7.5,0,0,0,0,0
2.249,7.5,0,0,0,0,0
2.25,6.875,0,0,0,0,0
2.251,6.875,0,0,0,0,0
2.252,6.625,0,0,0,0,0
2.253,6.5625,0,0,0,0,0
2.254,7.3125,0,0,0,0,0
2.255,6.875,0,0,0,0,0
2.256,7.125,0,0,0,0,0
2.257,7,0,0,0,0,0
2.258,7.9375,0,0,0,0,0
2.259,7.8125,0,0,0,0,0
2.26,8,0,0,0,0,0
2.261,9.0625,0,0,0,0,0
2.262,10.125,0,0,0,0,0
2.263,10.313,0,0,0,0,0
2.264,10.063,0,0,0,0,0
2.265,10.313,0,0,0,0,0
2.266,10.188,0,0,0,0,0
2.267,9.375,0,0,0,0,0
2.268,10.313,0,0,0,1,0
2.269,10.625,0,0,0,0,0
2.27,11.125,0,0,0,0,0
2.271,11.063,0,0,0,0,0
2.272,10.375,0,0,0,0,0
2.273,10.125,0,0,0,0,0
2.274,10,0,0,0,0,0
2.275,9.375,0,0,0,0,0
2.276,8.25,0,0,0,0,0
2.277,7.9375,0,0,0,0,0
2.278,7.875,0,0,0,0,0
2.279,7.9375,0,0,0,0,0
2.28,8.625,0,0,0,0,0
2.281,8.4375,0,0,0,0,0
2.282,8.5,0,0,0,0,0
2.283,8.875,0,0,0,0,0
2.284,7.9375,0,0,0,0,0
2.285,7.8125,0,0,0,0,0
2.286,7.4375,0,0,0,0,0
2.287,6.875,0,0,0,0,0
2.288,7.125,0,0,0,0,0
2.289,8.25,0,0,0,0,0
2.29,8.4375,0,0,0,0,0
2.291,8.75,0,0,0,0,0
2.292,8.625,0,0,0,0,0
2.293,8.5625,0,0,0,0,0
2.294,8.1875,0,0,0,0,0
2.295,7.625,0,0,0,0,0
2.296,7.5625,0,0,0,0,0
2.297,7.9375,0,0,0,0,0
2.298,8.1875,0,0,0,0,0
2.299,7.625,0,0,0,0,0
2.3,7.0625,0,0,0,0,0
2.301,6.6875,0,0,0,0,0
2.302,6.625,0,0,0,0,0
2.303,6.375,0,0,0,0,0
2.304,6.4375,0,0,0,0,0
2.305,6.25,0,0,0,0,0
2.306,6.375,0,0,0,0,0
2.307,7.1875,0,0,0,0,0
2.308,7.0625,0,0,0,0,0
2.309,7.5,0,0,0,0,0
2.31,7.125,0,0,0,0,0
2.311,7.8125,0,0,0,0,0
2.312,8.0625,0,0,0,0,0
2.313,7.3125,0,0,0,0,0
2.314,6.9375,0,0,0,0,0
2.315,6.875,0,0,0,0,0
2.316,5.9375,0,0,0,0,0
2.317,5.625,0,0,0,0,0
2.318,5.1875,0,0,0,0,0
2.319,4.8125,0,0,0,0,0
2.32,4.625,0,0,0,0,0
2.321,4.5,0,0,0,0,0
2.322,4.375,0,0,0,0,0
2.323,4.6875,0,0,0,0,0
2.324,4.9375,0,0,0,0,0
2.325,4.375,0,0,0,0,0
2.326,3.5,0,0,0,0,0
2.327,3.5625,0,0,0,0,0
2.328,4.5625,0,0,0,0,0
2.329,3.5625,0,0,0,0,0
2.33,2.75,0,0,0,0,0
2.331,2.5,0,0,0,0,0
2.332,3.0625,0,0,0,0,0
2.333,2.9375,0,0,0,0,0
2.334,3.5,0,0,0,0,0
2.335,3.75,0,0,0,0,0
2.336,3.1875,0,0,0,0,0
2.337,3.125,0,0,0,0,0
2.338,3.375,0,0,0,0,0
2.339,3.4375,0,0,0,0,0
2.34,3.5625,0,0,0,0,0
2.341,3.5625,0,0,0,0,0
2.342,2.8125,0,0,0,0,1
2.343,2.9375,0,0,0,0,0
2.344,2.3125,0,0,0,0,0
2.345,2.1875,0,0,0,0,0
2.346,2,0,0,0,0,0
2.347,2.5,0,0,0,0,0
2.348,2.875,0,0,0,0,0
2.349,3.75,0,0,0,0,0
2.35,3.5,0,0,0,0,0
2.351,3.5625,0,0,0,0,0
2.352,3.875,0,0,0,0,0
2.353,3.25,0,0,0,0,0
2.354,2.6875,0,0,0,0,0
2.355,2.625,0,0,0,0,0
2.356,1.4375,0,0,0,0,0
2.357,0.625,0,0,0,0,0
2.358,1.625,0,0,0,0,0
2.359,2.3125,0,0,0,0,0
2.36,2.125,0,0,0,0,0
2.361,2.3125,0,0,0,0,0
2.362,2.5625,0,0,0,0,0
2.363,2.1875,0,0,0,0,0
2.364,2.125,0,0,0,0,0
2.365,2.625,0,0,0,0,0
2.366,2.4375,0,0,0,0,0
2.367,2.3125,0,0,0,0,0
2.368,2.3125,0,0,0,0,0
2.369,2.625,0,0,0,0,0
2.37,2.75,0,0,0,0,0
2.371,3.4375,0,0,0,0,0
2.372,3.0625,0,0,0,0,0
2.373,2.3125,0,0,0,0,0
2.374,2.25,0,0,0,0,0
2.375,2.3125,0,0,0,0,0
2.376,1.875,0,0,0,0,0
2.377,1.375,0,0,0,0,0
2.378,2.25,0,0,0,0,0
2.379,1.875,0,0,0,0,0
2.38,1.3125,0,0,0,0,0
2.381,0.625,0,0,0,0,0
2.382,1.9375,0,0,0,0,0
2.383,2.625,0,0,0,0,0
2.384,2.875,0,0,0,0,0
2.385,2.3125,0,0,0,0,0
2.386,2.25,0,0,0,0,0
2.387,2,0,0,0,0,0
2.388,1.75,0,0,0,0,0
2.389,0.75,0,0,0,0,0
2.39,0.875,0,0,0,0,0
2.391,1.0625,0,0,0,0,0
2.392,1.125,0,0,0,0,0
2.393,2,0,0,0,0,0
2.394,2.8125,0,0,0,0,0
2.395,2.5,0,0,0,0,0
2.396,2.1875,0,0,0,0,0
2.397,1.6875,0,0,0,0,0
2.398,1.5625,0,0,0,0,0
2.399,1.25,0,0,0,0,0
2.4,1.8125,0,0,0,0,0
2.401,1.6875,0,0,0,0,0
2.402,2.3125,0,0,0,0,0
2.403,2.5,0,0,0,0,0
2.404,3,0,0,0,0,0
2.405,2.9375,0,0,0,0,0
2.406,1.4375,0,0,0,0,0
2.407,1.25,0,0,0,0,0
2.408,1.625,0,0,0,0,0
2.409,1.5625,0,0,0,0,0
2.41,1.4375,0,0,0,0,0
2.411,2.1875,0,0,0,0,0
2.412,1.75,0,0,0,0,0
2.413,1.875,0,0,0,0,0
2.414,1.3125,0,0,0,0,0
2.415,2,0,0,0,0,0
2.416,1.125,0,0,0,0,0
2.417,1.5625,0,0,0,0,0
2.418,1.9375,0,0,0,0,0
2.419,2.3125,0,0,0,0,0
2.42,2.1875,0,0,0,0,0
2.421,2.8125,0,0,0,0,0
2.422,1.6875,0,0,0,0,0
2.423,2,0,0,0,0,0
2.424,2.375,0,0,0,0,0
2.425,3.125,0,0,0,0,0
2.426,2.0625,0,0,0,0,0
2.427,2.3125,0,0,0,0,0
2.428,1.875,0,0,0,0,0
2.429,1.6875,0,0,0,0,0
2.43,2.1875,0,0,0,0,0
2.431,2.1875,0,0,0,0,0
2.432,2.25,0,0,0,0,0
2.433,1.875,0,0,0,0,0
2.434,2.1875,0,0,0,0,0
2.435,2.3125,0,0,0,0,0
2.436,2.75,0,0,0,0,0
2.437,2.8125,0,0,0,0,0
2.438,2.125,0,0,0,0,0
2.439,1.6875,0,0,0,0,0
2.44,2.125,0,0,0,0,0
2.441,2.625,0,0,0,0,0
2.442,2.75,0,0,0,0,0
2.443,2.625,0,0,0,0,0
2.444,3.25,0,0,0,0,0
2.445,3.125,0,0,0,0,0
2.446,3.0625,0,0,0,0,0
2.447,3.125,0,0,0,0,0
2.448,3.8125,0,0,0,0,0
2.449,4.375,0,0,0,0,0
2.45,3.625,0,0,0,0,0
2.451,3.4375,0,0,0,0,0
2.452,4.125,0,0,0,0,0
2.453,3.75,0,0,0,0,0
2.454,3.875,0,0,0,0,0
2.455,4.5,0,0,0,0,0
2.456,3.9375,0,0,0,0,0
2.457,3.4375,0,0,0,0,0
2.458,3.125,0,0,0,0,0
2.459,3.25,0,0,0,0,0
2.46,2.75,0,0,0,0,0
2.461,2.8125,0,0,0,0,0
2.462,3.375,0,0,0,0,0
2.463,2.9375,0,0,0,0,0
2.464,1.3125,0,0,0,0,0
2.465,0.4375,0,0,0,0,0
2.466,0.6875,0,0,0,0,0
2.467,0.9375,0,0,0,0,0
2.468,1.1875,0,0,0,0,0
2.469,1.6875,0,0,0,0,0
2.47,1.9375,0,0,0,0,0
2.471,2.625,0,0,0,0,0
2.472,3.25,0,0,0,0,0
2.473,4.0625,0,0,0,0,0
2.474,3.1875,0,0,0,0,0
2.475,3.4375,0,0,0,0,0
2.476,2.75,0,0,0,0,0
2.477,2.3125,0,0,0,0,0
2.478,2.25,0,0,0,0,0
2.479,1.875,0,0,0,0,0
2.48,1.5625,0,0,0,0,0
2.481,1.375,0,0,0,0,0
2.482,1.5,0,0,0,0,0
2.483,1.875,0,0,0,0,0
2.484,1.4375,0,0,0,0,0
2.485,2.1875,0,0,0,0,0
2.486,2.9375,0,0,0,0,0
2.487,3.25,0,0,0,0,0
2.488,3.5625,0,0,0,0,0
2.489,3.25,0,0,0,0,0
2.49,2.5625,0,0,0,0,0
2.491,2.5,0,0,0,0,0
2.492,3.0625,0,0,0,0,0
2.493,3.125,0,0,0,0,0
2.494,3.0625,0,0,0,0,0
2.495,3.75,0,0,0,0,0
2.496,3.9375,0,0,0,0,0
2.497,3.875,0,0,0,0,0
2.498,4.0625,0,0,0,0,0
2.499,3.875,0,0,0,0,0
2.5,4.0625,0,0,0,0,0
2.501,3.4375,0,0,0,0,0
2.502,3.3125,0,0,0,0,0
2.503,2.9375,0,0,0,0,0
2.504,3.125,0,0,0,0,0
2.505,2.8125,0,0,0,0,0
2.506,2.5,0,0,0,0,0
2.507,2.8125,0,0,0,0,0
2.508,2.8125,0,0,0,0,0
2.509,2.8125,0,0,0,0,0
2.51,2.25,0,0,0,0,0
2.511,2,0,0,0,0,0
2.512,2.8125,0,0,0,0,0
2.513,3.5625,0,0,0,0,0
2.514,3.25,0,0,0,0,0
2.515,2.9375,0,0,0,0,0
2.516,2.875,0,0,0,0,0
2.517,3.25,0,0,0,0,0
2.518,3.625,0,0,0,0,0
2.519,3.25,0,0,0,0,0
2.52,3.5,0,0,0,0,0
2.521,2.8125,0,0,0,0,0
2.522,2.8125,0,0,0,0,0
2.523,2.5,0,0,0,0,0
2.524,2.375,0,0,0,0,0
2.525,1.875,0,0,0,0,0
2.526,2.125,0,0,0,0,0
2.527,1.375,0,0,0,0,0
2.528,2.125,0,0,0,0,0
2.529,3.25,0,0,0,0,0
2.53,2.9375,0,0,0,0,0
2.531,3.125,0,0,0,0,0
2.532,2.75,0,0,0,0,0
2.533,2.625,0,0,0,0,0
2.534,2.6875,0,0,0,0,0
2.535,2.1875,0,0,0,0,0
2.536,2,0,0,0,0,0
2.537,2.1875,0,0,0,0,0
2.538,2.5,0,0,0,0,0
2.539,2.625,0,0,0,0,0
2.54,2.875,0,0,0,0,0
2.541,2.8125,0,0,0,0,0
2.542,2.8125,0,0,0,0,0
2.543,2.625,0,0,0,0,0
2.544,2.1875,0,0,0,0,0
2.545,1.25,0,0,0,0,0
2.546,2.125,0,0,0,0,0
2.547,4.0625,0,0,0,0,0
2.548,4.8125,0,0,0,0,0
2.549,5.4375,0,0,0,0,0
2.55,6.0625,0,0,0,0,0
2.551,6.25,0,0,0,0,0
2.552,5.375,0,0,0,0,0
2.553,4.5,0,0,0,0,0
2.554,4.375,0,0,0,0,0
2.555,4.0625,0,0,0,0,0
2.556,3.625,0,0,0,0,0
2.557,3.4375,0,0,0,0,0
2.558,2.8125,0,0,0,0,0
2.559,2,0,0,0,0,0
2.56,1.75,0,0,0,0,0
2.561,1.0625,0,0,0,0,0
2.562,1,0,0,0,0,0
2.563,0.9375,0,0,0,0,0
2.564,0.5,0,0,0,0,0
2.565,0.9375,0,0,0,0,0
2.566,1,0,0,0,0,0
2.567,0.625,0,0,0,0,0
2.568,1.25,0,0,0,0,0
2.569,1.375,0,0,0,0,0
2.57,1.4375,0,0,0,0,0
2.571,1.375,0,0,0,0,0
2.572,2.125,0,0,0,0,0
2.573,2.1875,0,0,0,0,0
2.574,2.125,0,0,0,0,0
2.575,2.625,0,0,0,0,0
2.576,2.5,0,0,0,0,0
2.577,2,0,0,0,0,0
2.578,2.125,0,0,0,0,0
2.579,1.6875,0,0,0,0,0
2.58,1.5625,0,0,0,0,0
2.581,1.375,0,0,0,0,0
2.582,2,0,0,0,0,0
2.583,2.5,0,0,0,0,0
2.584,2.25,0,0,0,0,0
2.585,2,0,0,0,0,0
2.586,2.625,0,0,0,0,0
2.587,2.9375,0,0,0,0,0
2.588,2.5625,0,0,0,0,0
2.589,2.625,0,0,0,0,0
2.59,3.125,0,0,0,0,0
2.591,3.4375,0,0,0,0,0
2.592,3.25,0,0,0,0,0
2.593,3.4375,0,0,0,0,0
2.594,2.9375,0,0,0,0,0
2.595,2.5,0,0,0,0,0
2.596,2.5,0,0,0,0,0
2.597,2.9375,0,0,0,0,0
2.598,3.4375,0,0,0,0,0
2.599,3.4375,0,0,0,0,0
2.6,3.5625,0,0,0,0,0
2.601,3.5625,0,0,0,0,0
2.602,3.625,0,0,0,0,0
2.603,3.25,0,0,0,0,0
2.604,3.5,0,0,0,0,0
2.605,2.8125,0,0,0,0,0
2.606,3.25,0,0,0,0,0
2.607,3.5625,0,0,0,0,0
2.608,3.8125,0,0,0,0,0
2.609,3.75,0,0,0,0,0
2.61,2.4375,0,0,0,0,0
2.611,2,0,0,0,0,0
2.612,1.0625,0,0,0,0,0
2.613,1.375,0,0,0,0,0
2.614,2.1875,0,0,0,0,0
2.615,2,0,0,0,0,0
2.616,1.75,0,0,0,0,0
2.617,2,0,0,0,0,0
2.618,1.75,0,0,0,0,0
2.619,1.5625,0,0,0,0,0
2.62,1.5625,0,0,0,0,0
2.621,1.0625,0,0,0,0,0
2.622,2.25,0,0,0,0,0
2.623,1.875,0,0,0,0,0
2.624,1.75,0,0,0,0,0
2.625,1.6875,0,0,0,0,0
2.626,2.5625,0,0,0,0,0
2.627,2.3125,0,0,0,0,0
2.628,2.3125,0,0,0,0,0
2.629,2.625,0,0,0,0,0
2.63,2.375,0,0,0,0,0
2.631,2.9375,0,0,0,0,0
2.632,2.75,0,0,0,0,0
2.633,2.3125,0,0,0,0,0
2.634,2.125,0,0,0,0,0
2.635,2.8125,0,0,0,0,0
2.636,3.125,0,0,0,0,0
2.637,3.25,0,0,0,0,0
2.638,2.9375,0,0,0,0,0
2.639,2.5,0,0,0,0,0
2.64,2.125,0,0,0,0,0
2.641,2,0,0,0,0,0
2.642,2.0625,0,0,0,0,0
2.643,1.875,0,0,0,0,0
2.644,1.0625,0,0,0,0,0
2.645,0.9375,0,0,0,0,0
2.646,2.1875,0,0,0,0,0
2.647,2.625,0,0,0,0,0
2.648,2.8125,0,0,0,0,0
2.649,2.625,0,0,0,0,0
2.65,1.75,0,0,0,0,0
2.651,1.375,0,0,0,0,0
2.652,1.8125,0,0,0,0,0
2.653,2.1875,0,0,0,0,0
2.654,2,0,0,0,0,0
2.655,2.3125,0,0,0,0,0
2.656,2,0,0,0,0,0
2.657,2.1875,0,0,0,0,0
2.658,2.8125,0,0,0,0,0
2.659,3.5625,0,0,0,0,0
2.66,4.125,0,0,0,0,0
2.661,4.5,0,0,0,0,0
2.662,4.875,0,0,0,0,0
2.663,5,0,0,0,0,0
2.664,4.5,0,0,0,0,0
2.665,4.5,0,0,0,0,0
2.666,4.625,0,0,0,0,0
2.667,4.5,0,0,0,0,0
2.668,4.0625,0,0,0,0,0
2.669,4.375,0,0,0,0,0
2.67,4.25,0,0,0,0,0
2.671,4.375,0,0,0,0,0
2.672,4.0625,0,0,0,0,0
2.673,3.875,0,0,0,0,0
2.674,4.625,0,0,0,0,0
2.675,4.5,0,0,0,0,0
2.676,3.875,0,0,0,0,0
2.677,2.8125,0,0,0,0,0
2.678,2.5,0,0,0,0,0
2.679,2.1875,0,0,0,0,0
2.68,1.5625,0,0,0,0,0
2.681,1.5625,0,0,0,0,0
2.682,1.9375,0,0,0,0,0
2.683,1.6875,0,0,0,0,0
2.684,1.25,0,0,0,0,0
2.685,0.4375,0,0,0,0,0
2.686,-0.375,0,0,0,0,0
2.687,-0.5,0,0,0,0,0
2.688,0.1875,0,0,0,0,0
2.689,0.4375,0,0,0,0,0
2.69,0.5,0,0,0,0,0
2.691,0.75,0,0,0,0,0
2.692,0.625,0,0,0,0,0
2.693,0.625,0,0,0,0,0
2.694,0.3125,0,0,0,0,0
2.695,0,0,0,0,0,0
2.696,1,0,0,0,0,0
2.697,1.25,0,0,0,0,0
2.698,2.1875,0,0,0,0,0
2.699,2.5,0,0,0,0,0
2.7,2.0625,0,0,0,0,0
2.701,2,0,0,0,0,0
2.702,1.9375,0,0,0,0,0
2.703,2.3125,0,0,0,0,0
2.704,2.8125,0,0,0,0,0
2.705,2.9375,0,0,0,0,0
2.706,2.875,0,0,0,0,0
2.707,2.8125,0,0,0,0,0
2.708,2.8125,0,0,0,0,0
2.709,2,0,0,0,0,0
2.71,2.1875,0,0,0,0,0
2.711,2.1875,0,0,0,0,0
2.712,2.3125,0,0,0,0,0
2.713,2.1875,0,0,0,0,0
2.714,2.125,0,0,0,0,0
2.715,1.6875,0,0,0,0,0
2.716,2,0,0,0,0,0
2.717,2.5,0,0,0,0,0
2.718,2.9375,0,0,0,0,0
2.719,2.5,0,0,0,0,0
2.72,2,0,0,0,0,0
2.721,2.8125,0,0,0,0,0
2.722,3.6875,0,0,0,0,0
2.723,3.5625,0,0,0,0,0
2.724,4.5625,0,0,0,0,0
2.725,4.6875,0,0,0,0,0
2.726,3.5,0,0,0,0,0
2.727,3.25,0,0,0,0,0
2.728,3.375,0,0,0,0,0
2.729,3.125,0,0,0,0,0
2.73,3.0625,0,0,0,0,0
2.731,2.3125,0,0,0,0,0
2.732,1.75,0,0,0,0,0
2.733,1.0625,0,0,0,0,0
2.734,2,0,0,0,0,0
2.735,2.9375,0,0,0,0,0
2.736,2.6875,0,0,0,0,0
2.737,2.625,0,0,0,0,0
2.738,3,0,0,0,0,0
2.739,2.625,0,0,0,0,0
2.74,2.25,0,0,0,0,0
2.741,1.875,0,0,0,0,0
2.742,2.125,0,0,0,0,0
2.743,2.5,0,0,0,0,0
2.744,2.125,0,0,0,0,0
2.745,2.3125,0,0,0,0,0
2.746,2.4375,0,0,0,0,0
2.747,2.625,0,0,0,0,0
2.748,1.5,0,0,0,0,0
2.749,1.875,0,0,0,0,0
2.75,1.875,0,0,0,0,0
2.751,1.875,0,0,0,0,0
2.752,2.0625,0,0,0,0,0
2.753,2.1875,0,0,0,0,0
2.754,2.625,0,0,0,0,0
2.755,2.9375,0,0,0,0,0
2.756,3.125,0,0,0,0,0
2.757,3.4375,0,0,0,0,0
2.758,3.5625,0,0,0,0,0
2.759,3.75,0,0,0,0,0
2.76,3.3125,0,0,0,0,0
2.761,2.9375,0,0,0,0,0
2.762,2.875,0,0,0,0,0
2.763,2.5,0,0,0,0,0
2.764,1.9375,0,0,0,0,0
2.765,0.75,0,0,0,0,0
2.766,0.75,0,0,0,0,0
2.767,0.625,0,0,0,0,0
2.768,1,0,0,0,0,0
2.769,2.1875,0,0,0,0,0
2.77,2.625,0,0,0,0,0
2.771,3.125,0,0,0,0,0
2.772,1.9375,0,0,0,0,0
2.773,2.5,0,0,0,0,0
2.774,2.5625,0,0,0,0,0
2.775,2.5,0,0,0,0,0
2.776,2.75,0,0,0,0,0
2.777,2.3125,0,0,0,0,0
2.778,2.1875,0,0,0,0,0
2.779,1.875,0,0,0,0,0
2.78,2.0625,0,0,0,0,0
2.781,2.3125,0,0,0,0,0
2.782,2.3125,0,0,0,0,0
2.783,2.1875,0,0,0,0,0
2.784,2.375,0,0,0,0,0
2.785,2.3125,0,0,0,0,0
2.786,2.4375,0,0,0,0,0
2.787,2.9375,0,0,0,0,0
2.788,3.25,0,0,0,0,0
2.789,2.9375,0,0,0,0,0
2.79,2.3125,0,0,0,0,0
2.791,1.6875,0,0,0,0,0
2.792,2.3125,0,0,0,0,0
2.793,2.625,0,0,0,0,0
2.794,2.4375,0,0,0,0,0
2.795,2.5,0,0,0,0,0
2.796,3,0,0,0,0,0
2.797,2.5,0,0,0,0,0
2.798,2.125,0,0,0,0,0
2.799,2.3125,0,0,0,0,0
2.8,3.0625,0,0,0,0,0
2.801,3.4375,0,0,0,0,0
2.802,2.5,0,0,0,0,0
2.803,2.5,0,0,0,0,0
2.804,1.875,0,0,0,0,0
2.805,1.875,0,0,0,0,0
2.806,1.8125,0,0,0,0,0
2.807,1.875,0,0,0,0,0
2.808,3,0,0,0,0,0
2.809,3.75,0,0,0,0,0
2.81,3.6875,0,0,0,0,0
2.811,4.0625,0,0,0,0,0
2.812,4.375,0,0,0,0,0
2.813,4.0625,0,0,0,0,0
2.814,3.9375,0,0,0,0,0
2.815,3.5625,0,0,0,0,0
2.816,4.0625,0,0,0,0,0
2.817,4.1875,0,0,0,0,0
2.818,4.3125,0,0,0,0,0
2.819,4.375,0,0,0,0,0
2.82,4.375,0,0,0,0,0
2.821,4.0625,0,0,0,0,0
2.822,4,0,0,0,0,0
2.823,3.75,0,0,0,0,0
2.824,3.5,0,0,0,0,0
2.825,3.75,0,0,0,0,0
2.826,3.6875,0,0,0,0,0
2.827,3.5625,0,0,0,0,0
2.828,3.8125,0,0,0,0,0
2.829,4.5,0,0,0,0,0
2.83,4.6875,0,0,0,0,0
2.831,4.6875,0,0,0,0,0
2.832,4.75,0,0,0,0,0
2.833,5.625,0,0,0,0,0
2.834,5.625,0,0,0,0,0
2.835,5.75,0,0,0,0,0
2.836,5.625,0,0,0,0,0
2.837,5.125,0,0,0,0,0
2.838,4.375,0,0,0,0,0
2.839,3.125,0,0,0,0,0
2.84,3.1875,0,0,0,0,0
2.841,4.1875,0,0,0,0,0
2.842,4.25,0,0,0,0,0
2.843,3.4375,0,0,0,0,0
2.844,3.125,0,0,0,0,0
2.845,2.625,0,0,0,0,0
2.846,2.6875,0,0,0,0,0
2.847,2.625,0,0,0,0,0
2.848,2.5625,0,0,0,0,0
2.849,3.125,0,0,0,0,0
2.85,3.125,0,0,0,0,0
2.851,3.75,0,0,0,0,0
2.852,4.5625,0,0,0,0,0
2.853,5,0,0,0,0,0
2.854,5.0625,0,0,0,0,0
2.855,5.3125,0,0,0,0,0
2.856,5.25,0,0,0,0,0
2.857,4.6875,0,0,0,0,0
2.858,4.9375,0,0,0,0,0
2.859,5.125,0,0,0,0,0
2.86,4.6875,0,0,0,0,0
2.861,4.6875,0,0,0,0,0
2.862,4.6875,0,0,0,0,0
2.863,4.8125,0,0,0,0,0
2.864,4.4375,0,0,0,0,0
2.865,4.1875,0,0,0,0,0
2.866,4.1875,0,0,0,0,0
2.867,3.75,0,0,0,0,0
2.868,3.1875,0,0,0,0,0
2.869,2.8125,0,0,0,0,0
2.87,2.4375,0,0,0,0,0
2.871,1.6875,0,0,0,0,0
2.872,1.8125,0,0,0,0,0
2.873,2.1875,0,0,0,0,0
2.874,2.4375,0,0,0,0,0
2.875,2.625,0,0,0,0,0
2.876,2.5,0,0,0,0,0
2.877,2.3125,0,0,0,0,0
2.878,2.4375,0,0,0,0,0
2.879,1.875,0,0,0,0,0
2.88,1.625,0,0,0,0,0
2.881,1.375,0,0,0,0,0
2.882,1.375,0,0,0,0,0
2.883,0.9375,0,0,0,0,0
2.884,0.9375,0,0,0,0,0
2.885,1.0625,0,0,0,0,0
2.886,1.5625,0,0,0,0,0
2.887,1.6875,0,0,0,0,0
2.888,1.3125,0,0,0,0,0
2.889,1.875,0,0,0,0,0
2.89,2.375,0,0,0,0,0
2.891,2.3125,0,0,0,0,0
2.892,1.75,0,0,0,0,0
2.893,1.875,0,0,0,0,0
2.894,2.875,0,0,0,0,0
2.895,3.125,0,0,0,0,0
2.896,3,0,0,0,0,0
2.897,3.125,0,0,0,0,0
2.898,2.5,0,0,0,0,0
2.899,2.3125,0,0,0,0,0
2.9,1.875,0,0,0,0,0
2.901,2.1875,0,0,0,0,0
2.902,2.4375,0,0,0,0,0
2.903,2.3125,0,0,0,0,0
2.904,2,0,0,0,0,0
2.905,1.5625,0,0,0,0,0
2.906,1.125,0,0,0,0,0
2.907,1.0625,0,0,0,0,0
2.908,1.375,0,0,0,0,0
2.909,2.5,0,0,0,0,0
2.91,2.625,0,0,0,0,0
2.911,2.5,0,0,0,0,0
2.912,3.125,0,0,0,0,0
2.913,2.9375,0,0,0,0,0
2.914,2.8125,0,0,0,0,0
2.915,1.5625,0,0,0,0,0
2.916,1.25,0,0,0,0,0
2.917,1.375,0,0,0,0,0
2.918,2,0,0,0,0,0
2.919,2.1875,0,0,0,0,0
2.92,2.0625,0,0,0,0,0
2.921,2.625,0,0,0,0,0
2.922,2.5625,0,0,0,0,0
2.923,3.4375,0,0,0,0,0
2.924,4.4375,0,0,0,0,0
2.925,4.1875,0,0,0,0,0
2.926,3.75,0,0,0,0,0
2.927,2.9375,0,0,0,0,0
2.928,2.75,0,0,0,0,0
2.929,2.9375,0,0,0,0,0
2.93,2.25,0,0,0,0,0
2.931,2.3125,0,0,0,0,0
2.932,1.4375,0,0,0,0,0
2.933,1.6875,0,0,0,0,0
2.934,2.3125,0,0,0,0,0
2.935,1.875,0,0,0,0,0
2.936,1.875,0,0,0,0,0
2.937,1.6875,0,0,0,0,0
2.938,2,0,0,0,0,0
2.939,2.1875,0,0,0,0,0
2.94,1.625,0,0,0,0,0
2.941,1.375,0,0,0,0,0
2.942,2.4375,0,0,0,0,0
2.943,3.125,0,0,0,0,0
2.944,2.875,0,0,0,0,0
2.945,2.625,0,0,0,0,0
2.946,2.4375,0,0,0,0,0
2.947,2.3125,0,0,0,0,0
2.948,2.1875,0,0,0,0,0
2.949,2.8125,0,0,0,0,0
2.95,2.4375,0,0,0,0,0
2.951,2.8125,0,0,0,0,0
2.952,2.8125,0,0,0,0,0
2.953,2.5,0,0,0,0,0
2.954,3.5,0,0,0,0,0
2.955,3.25,0,0,0,0,0
2.956,2.3125,0,0,0,0,0
2.957,2.9375,0,0,0,0,0
2.958,2.6875,0,0,0,0,0
2.959,2,0,0,0,0,0
2.96,1.8125,0,0,0,0,0
2.961,1.6875,0,0,0,0,0
2.962,2,0,0,0,0,0
2.963,2,0,0,0,0,0
2.964,1.875,0,0,0,0,0
2.965,1.6875,0,0,0,0,0
2.966,2.125,0,0,0,0,0
2.967,1.875,0,0,0,0,0
2.968,1.875,0,0,0,0,0
2.969,2,0,0,0,0,0
2.97,2.1875,0,0,0,0,0
2.971,1.5625,0,0,0,0,0
2.972,1.4375,0,0,0,0,0
2.973,2,0,0,0,0,0
2.974,2.25,0,0,0,0,0
2.975,2.3125,0,0,0,0,0
2.976,2.8125,0,0,0,0,0
2.977,2.3125,0,0,0,0,0
2.978,3.125,0,0,0,0,0
2.979,3.875,0,0,0,0,0
2.98,4.125,0,0,0,0,0
2.981,4.5,0,0,0,0,0
2.982,3.75,0,0,0,0,0
2.983,3.4375,0,0,0,0,0
2.984,1.9375,0,0,0,0,0
2.985,0.9375,0,0,0,0,0
2.986,2.1875,0,0,0,0,0
2.987,4.0625,0,0,0,0,0
2.988,4.3125,0,0,0,0,0
2.989,4.6875,0,0,0,0,0
2.99,3.4375,0,0,0,0,0
2.991,2.8125,0,0,0,0,0
2.992,2.0625,0,0,0,0,0
2.993,1.375,0,0,0,0,0
2.994,1.8125,0,0,0,0,0
2.995,1.375,0,0,0,0,0
2.996,1.6875,0,0,0,0,0
2.997,1.6875,0,0,0,0,0
2.998,1.875,0,0,0,0,0
2.999,1.0625,0,0,0,0,0
3,1.8125,0,0,0,0,0
3.001,2.8125,0,0,0,0,0
3.002,2.9375,0,0,0,0,0
3.003,3.125,0,0,0,0,0
3.004,2.5625,0,0,0,0,0
3.005,2,0,0,0,0,0
3.006,2.25,0,0,0,0,0
3.007,1.5625,0,0,0,0,0
3.008,2.5625,0,0,0,0,0
3.009,3.125,0,0,0,0,0
3.01,3.8125,0,0,0,0,0
3.011,4.1875,0,0,0,0,0
3.012,4.125,0,0,0,0,0
3.013,4.5,0,0,0,0,0
3.014,5.125,0,0,0,0,0
3.015,5,0,0,0,0,0
3.016,4.8125,0,0,0,0,0
3.017,4.6875,0,0,0,0,0
3.018,4.625,0,0,0,0,0
3.019,4.5,0,0,0,0,0
3.02,4.375,0,0,0,0,0
3.021,4.1875,0,0,0,0,0
3.022,3.75,0,0,0,0,0
3.023,3.4375,0,0,0,0,0
3.024,3.4375,0,0,0,0,0
3.025,3.25,0,0,0,0,0
3.026,2.8125,0,0,0,0,0
3.027,2.9375,0,0,0,0,0
3.028,3.75,0,0,0,0,0
3.029,4.375,0,0,0,0,0
3.03,3.8125,0,0,0,0,0
3.031,3.125,0,0,0,0,0
3.032,2.3125,0,0,0,0,0
3.033,1.875,0,0,0,0,0
3.034,1.875,0,0,0,0,0
3.035,1.0625,0,0,0,0,0
3.036,0.5625,0,0,0,0,0
3.037,-0.8125,0,0,0,0,0
3.038,-1.9375,0,0,0,0,0
3.039,-3,0,0,0,0,0
3.04,-3.875,0,0,0,0,0
3.041,-4.375,1,0,0,0,0
3.042,-5.4375,0,0,0,0,0
3.043,-5.3125,0,0,0,0,0
3.044,-4.625,0,0,0,0,0
3.045,-4.0625,0,0,0,0,0
3.046,-4.1875,0,0,0,0,0
3.047,-4.375,0,0,0,0,0
3.048,-5.1875,0,0,0,0,0
3.049,-6.25,0,0,0,0,0
3.05,-7.6875,0,0,0,0,0
3.051,-10.313,0,0,0,0,0
3.052,-13.813,0,0,0,0,0
3.053,-16.563,0,0,0,0,0
3.054,-19.125,0,0,0,0,0
3.055,-21.125,0,0,0,0,0
3.056,-22.938,0,0,0,0,0
3.057,-24.688,0,0,0,0,0
3.058,-28.313,0,0,0,0,0
3.059,-29.875,0,0,0,0,0
3.06,-29.063,0,0,0,0,0
3.061,-28.75,0,1,0,0,0
3.062,-27.625,0,0,0,0,0
3.063,-25.938,0,0,0,0,0
3.064,-24.063,0,0,0,0,0
3.065,-22.813,0,0,0,0,0
3.066,-22.125,0,0,0,0,0
3.067,-20.813,0,0,0,0,0
3.068,-20.813,0,0,0,0,0
3.069,-20.625,0,0,0,0,0
3.07,-20.375,0,0,0,0,0
3.071,-18.438,0,0,0,0,0
3.072,-15.188,0,0,0,0,0
3.073,-12.5,0,0,0,0,0
3.074,-8.5625,0,0,0,0,0
3.075,-5.1875,0,0,0,0,0
3.076,-2.8125,0,0,0,0,0
3.077,-0.8125,0,0,0,0,0
3.078,-0.0625,0,0,0,0,0
3.079,1.6875,0,0,0,0,0
3.08,3.1875,0,0,0,0,0
3.081,4.6875,0,0,0,0,0
3.082,4.9375,0,0,1,0,0
3.083,5.3125,0,0,0,0,0
3.084,5.5,0,0,0,0,0
3.085,5.9375,0,0,0,0,0
3.086,4.8125,0,0,0,0,0
3.087,4.1875,0,0,0,0,0
3.088,4.75,0,0,0,0,0
3.089,4.6875,0,0,0,0,0
3.09,3.625,0,0,0,0,0
3.091,2.3125,0,0,0,0,0
3.092,1.5,0,0,0,0,0
3.093,0.4375,0,0,0,0,0
3.094,0.8125,0,0,0,0,0
3.095,0.9375,0,0,0,0,0
3.096,0.4375,0,0,0,0,0
3.097,0.125,0,0,0,0,0
3.098,0.625,0,0,0,0,0
3.099,1.25,0,0,0,0,0
3.1,1.75,0,0,0,0,0
3.101,2,0,0,0,0,0
3.102,2,0,0,0,0,0
3.103,2,0,0,0,0,0
3.104,1.125,0,0,0,0,0
3.105,-0.1875,0,0,0,0,0
3.106,0.0625,0,0,0,0,0
3.107,0.625,0,0,0,0,0
3.108,0.1875,0,0,0,0,0
3.109,0.125,0,0,0,0,0
3.11,0.25,0,0,0,0,0
3.111,0.9375,0,0,0,0,0
3.112,-0.25,0,0,0,0,0
3.113,0,0,0,0,0,0
3.114,1.0625,0,0,0,0,0
3.115,0.75,0,0,0,0,0
3.116,1.875,0,0,0,0,0
3.117,2.625,0,0,0,0,0
3.118,2.875,0,0,0,0,0
3.119,2.9375,0,0,0,0,0
3.12,2.1875,0,0,0,0,0
3.121,2.1875,0,0,0,0,0
3.122,2.3125,0,0,0,0,0
3.123,2.3125,0,0,0,0,0
3.124,1.875,0,0,0,0,0
3.125,2.3125,0,0,0,0,0
3.126,1.6875,0,0,0,0,0
3.127,1.875,0,0,0,0,0
3.128,1.75,0,0,0,0,0
3.129,1.875,0,0,0,0,0
3.13,1.5625,0,0,0,0,0
3.131,1.375,0,0,0,0,0
3.132,1.5625,0,0,0,0,0
3.133,1.5625,0,0,0,0,0
3.134,2.125,0,0,0,0,0
3.135,2.5,0,0,0,0,0
3.136,3.0625,0,0,0,0,0
3.137,2.8125,0,0,0,0,0
3.138,3.0625,0,0,0,0,0
3.139,3.25,0,0,0,0,0
3.14,2.875,0,0,0,0,0
3.141,3.25,0,0,0,0,0
3.142,3.625,0,0,0,0,0
3.143,3.75,0,0,0,0,0
3.144,3.375,0,0,0,0,0
3.145,2.9375,0,0,0,0,0
3.146,2.125,0,0,0,0,0
3.147,1.25,0,0,0,0,0
3.148,1.1875,0,0,0,0,0
3.149,2.1875,0,0,0,0,0
3.15,2.1875,0,0,0,0,0
3.151,2.3125,0,0,0,0,0
3.152,2.0625,0,0,0,0,0
3.153,2.1875,0,0,0,0,0
3.154,1.625,0,0,0,0,0
3.155,0.625,0,0,0,0,0
3.156,0.8125,0,0,0,0,0
3.157,1.0625,0,0,0,0,0
3.158,0.75,0,0,0,0,0
3.159,1.375,0,0,0,0,0
3.16,1.25,0,0,0,0,0
3.161,0.9375,0,0,0,0,0
3.162,1.5625,0,0,0,0,0
3.163,1.375,0,0,0,0,0
3.164,1.75,0,0,0,0,0
3.165,2.1875,0,0,0,0,0
3.166,1.9375,0,0,0,0,0
3.167,1.6875,0,0,0,0,0
3.168,1.6875,0,0,0,0,0
3.169,1.875,0,0,0,0,0
3.17,1.25,0,0,0,0,0
3.171,0.75,0,0,0,0,0
3.172,0.5625,0,0,0,0,0
3.173,0.75,0,0,0,0,0
3.174,1.1875,0,0,0,0,0
3.175,1.5625,0,0,0,0,0
3.176,2.1875,0,0,0,0,0
3.177,2.625,0,0,0,0,0
3.178,3.125,0,0,0,0,0
3.179,2.3125,0,0,0,0,0
3.18,2.8125,0,0,0,0,0
3.181,2.9375,0,0,0,0,0
3.182,2.4375,0,0,0,0,0
3.183,2.1875,0,0,0,0,0
3.184,1.8125,0,0,0,0,0
3.185,1.875,0,0,0,0,0
3.186,1.4375,0,0,0,0,0
3.187,1.25,0,0,0,0,0
3.188,2.25,0,0,0,0,0
3.189,2.1875,0,0,0,0,0
3.19,1.8125,0,0,0,0,0
3.191,2.5,0,0,0,0,0
3.192,2.4375,0,0,0,0,0
3.193,2.8125,0,0,0,0,0
3.194,3.625,0,0,0,0,0
3.195,3.875,0,0,0,0,0
3.196,4.125,0,0,0,0,0
3.197,4.0625,0,0,0,0,0
3.198,4.125,0,0,0,0,0
3.199,4.1875,0,0,0,0,0
3.2,3.625,0,0,0,0,0
3.201,3.4375,0,0,0,0,0
3.202,3.5,0,0,0,0,0
3.203,3.125,0,0,0,0,0
3.204,3.0625,0,0,0,0,0
3.205,2.8125,0,0,0,0,0
3.206,1.5625,0,0,0,0,0
3.207,1.0625,0,0,0,0,0
3.208,0.625,0,0,0,0,0
3.209,0.3125,0,0,0,0,0
3.21,1.6875,0,0,0,0,0
3.211,2.1875,0,0,0,0,0
3.212,1.25,0,0,0,0,0
3.213,1.0625,0,0,0,0,0
3.214,1,0,0,0,0,0
3.215,1.25,0,0,0,0,0
3.216,1.8125,0,0,0,0,0
3.217,2.3125,0,0,0,0,0
3.218,1.8125,0,0,0,0,0
3.219,2.1875,0,0,0,0,0
3.22,2.25,0,0,0,0,0
3.221,2,0,0,0,0,0
3.222,2.25,0,0,0,0,0
3.223,2.3125,0,0,0,0,0
3.224,2.625,0,0,0,0,0
3.225,3.25,0,0,0,0,0
3.226,2.5,0,0,0,0,0
3.227,2.9375,0,0,0,0,0
3.228,3.4375,0,0,0,0,0
3.229,2.8125,0,0,0,0,0
3.23,3.3125,0,0,0,0,0
3.231,3.25,0,0,0,0,0
3.232,2.5625,0,0,0,0,0
3.233,2.8125,0,0,0,0,0
3.234,2.8125,0,0,0,0,0
3.235,3.125,0,0,0,0,0
3.236,3.25,0,0,0,0,0
3.237,4.0625,0,0,0,0,0
3.238,3.5,0,0,0,0,0
3.239,2.625,0,0,0,0,0
3.24,2.3125,0,0,0,0,0
3.241,2.3125,0,0,0,0,0
3.242,2.75,0,0,0,0,0
3.243,2.1875,0,0,0,0,0
3.244,1.5625,0,0,0,0,0
3.245,1.375,0,0,0,0,0
3.246,1.9375,0,0,0,0,0
3.247,2.5,0,0,0,0,0
3.248,2.3125,0,0,0,0,0
3.249,2.625,0,0,0,0,0
3.25,2.3125,0,0,0,0,0
3.251,2.3125,0,0,0,0,0
3.252,2.1875,0,0,0,0,0
3.253,3.25,0,0,0,0,0
3.254,3.4375,0,0,0,0,0
3.255,3.25,0,0,0,0,0
3.256,2.5625,0,0,0,0,0
3.257,3.25,0,0,0,0,0
3.258,3.5,0,0,0,0,0
3.259,3.4375,0,0,0,0,0
3.26,4.125,0,0,0,0,0
3.261,3.4375,0,0,0,0,0
3.262,3.875,0,0,0,0,0
3.263,3.4375,0,0,0,0,0
3.264,2.875,0,0,0,0,0
3.265,3.4375,0,0,0,0,0
3.266,3.4375,0,0,0,0,0
3.267,3.5625,0,0,0,0,0
3.268,4.3125,0,0,0,0,0
3.269,4.375,0,0,0,0,0
3.27,4.4375,0,0,0,0,0
3.271,4.1875,0,0,0,0,0
3.272,4.125,0,0,0,0,0
3.273,4.1875,0,0,0,0,0
3.274,5.0625,0,0,0,0,0
3.275,5.125,0,0,0,0,0
3.276,4.75,0,0,0,0,0
3.277,4.5,0,0,0,0,0
3.278,4.25,0,0,0,0,0
3.279,4.0625,0,0,0,0,0
3.28,4.0625,0,0,0,0,0
3.281,3.875,0,0,0,0,0
3.282,3.4375,0,0,0,0,0
3.283,3.25,0,0,0,0,0
3.284,3.625,0,0,0,0,0
3.285,3.4375,0,0,0,0,0
3.286,3.625,0,0,0,0,0
3.287,3.4375,0,0,0,0,0
3.288,3.75,0,0,0,0,0
3.289,3.4375,0,0,0,0,0
3.29,3.125,0,0,0,0,0
3.291,3.4375,0,0,0,0,0
3.292,3.25,0,0,0,0,0
3.293,3.4375,0,0,0,0,0
3.294,4.125,0,0,0,0,0
3.295,4.5,0,0,0,0,0
3.296,4.625,0,0,0,0,0
3.297,5,0,0,0,0,0
3.298,5.75,0,0,0,0,0
3.299,5.75,0,0,0,0,0
3.3,5.4375,0,0,0,0,0
3.301,4.8125,0,0,0,0,0
3.302,4.75,0,0,0,0,0
3.303,5.125,0,0,0,0,0
3.304,5.25,0,0,0,0,0
3.305,5,0,0,0,0,0
3.306,5.3125,0,0,0,0,0
3.307,6.0625,0,0,0,0,0
3.308,6.4375,0,0,0,0,0
3.309,7.1875,0,0,0,0,0
3.31,6.5,0,0,0,0,0
3.311,6.375,0,0,0,0,0
3.312,5.8125,0,0,0,0,0
3.313,6.0625,0,0,0,0,0
3.314,5.6875,0,0,0,0,0
3.315,5.625,0,0,0,0,0
3.316,6.75,0,0,0,0,0
3.317,7.1875,0,0,0,0,0
3.318,7.1875,0,0,0,0,0
3.319,7.1875,0,0,0,0,0
3.32,6.6875,0,0,0,0,0
3.321,6.375,0,0,0,0,0
3.322,6.25,0,0,0,0,0
3.323,5.75,0,0,0,0,0
3.324,5.6875,0,0,0,0,0
3.325,5.125,0,0,0,0,0
3.326,5.1875,0,0,0,0,0
3.327,5.125,0,0,0,0,0
3.328,6.0625,0,0,0,0,0
3.329,7,0,0,0,0,0
3.33,7.5,0,0,0,0,0
3.331,7.8125,0,0,0,0,0
3.332,8.125,0,0,0,0,0
3.333,8.4375,0,0,0,0,0
3.334,8.0625,0,0,0,0,0
3.335,8.125,0,0,0,0,0
3.336,9.3125,0,0,0,0,0
3.337,9.5,0,0,0,0,0
3.338,8.625,0,0,0,0,0
3.339,8.4375,0,0,0,0,0
3.34,8.3125,0,0,0,0,0
3.341,7.8125,0,0,0,0,0
3.342,7.9375,0,0,0,0,0
3.343,7.625,0,0,0,0,0
3.344,7.8125,0,0,0,0,0
3.345,8.4375,0,0,0,0,0
3.346,8.4375,0,0,0,0,0
3.347,8.875,0,0,0,0,0
3.348,8.125,0,0,0,0,0
3.349,8.125,0,0,0,0,0
3.35,7.5625,0,0,0,0,0
3.351,7.625,0,0,0,0,0
3.352,8.3125,0,0,0,0,0
3.353,8.875,0,0,0,0,0
3.354,7.875,0,0,0,0,0
3.355,7,0,0,0,0,0
3.356,7.375,0,0,0,0,0
3.357,7.8125,0,0,0,1,0
3.358,7.1875,0,0,0,0,0
3.359,7.625,0,0,0,0,0
3.36,8.25,0,0,0,0,0
3.361,8.875,0,0,0,0,0
3.362,8.8125,0,0,0,0,0
3.363,8.75,0,0,0,0,0
3.364,8.5625,0,0,0,0,0
3.365,9.0625,0,0,0,0,0
3.366,9.75,0,0,0,0,0
3.367,9.375,0,0,0,0,0
3.368,9.25,0,0,0,0,0
3.369,9.0625,0,0,0,0,0
3.37,8.9375,0,0,0,0,0
3.371,9.375,0,0,0,0,0
3.372,8.625,0,0,0,0,0
3.373,8.125,0,0,0,0,0
3.374,8.375,0,0,0,0,0
3.375,7.9375,0,0,0,0,0
3.376,8.625,0,0,0,0,0
3.377,9.0625,0,0,0,0,0
3.378,9.4375,0,0,0,0,0
3.379,9.1875,0,0,0,0,0
3.38,9.625,0,0,0,0,0
3.381,9.6875,0,0,0,0,0
3.382,9.875,0,0,0,0,0
3.383,10.125,0,0,0,0,0
3.384,9.5625,0,0,0,0,0
3.385,8.75,0,0,0,0,0
3.386,8.5625,0,0,0,0,0
3.387,8.4375,0,0,0,0,0
3.388,8.25,0,0,0,0,0
3.389,8.25,0,0,0,0,0
3.39,7.4375,0,0,0,0,0
3.391,6.6875,0,0,0,0,0
3.392,6.25,0,0,0,0,0
3.393,6.0625,0,0,0,0,0
3.394,6.375,0,0,0,0,0
3.395,6.375,0,0,0,0,0
3.396,6.0625,0,0,0,0,0
3.397,5.9375,0,0,0,0,0
3.398,6.625,0,0,0,0,0
3.399,6.5625,0,0,0,0,0
3.4,6.875,0,0,0,0,0
3.401,6.6875,0,0,0,0,0
3.402,7.25,0,0,0,0,0
3.403,7.5,0,0,0,0,0
3.404,7.3125,0,0,0,0,0
3.405,7.625,0,0,0,0,0
3.406,7.8125,0,0,0,0,0
3.407,7,0,0,0,0,0
3.408,6.4375,0,0,0,0,0
3.409,5.625,0,0,0,0,0
3.41,5.1875,0,0,0,0,0
3.411,4.6875,0,0,0,0,0
3.412,4.625,0,0,0,0,0
3.413,4.375,0,0,0,0,0
3.414,4.25,0,0,0,0,0
3.415,4.1875,0,0,0,0,0
3.416,3.75,0,0,0,0,0
3.417,3.5625,0,0,0,0,0
3.418,3.5625,0,0,0,0,0
3.419,4.0625,0,0,0,0,0
3.42,3.25,0,0,0,0,0
3.421,2.625,0,0,0,0,0
3.422,3.125,0,0,0,0,0
3.423,4.1875,0,0,0,0,0
3.424,4.1875,0,0,0,0,0
3.425,4.0625,0,0,0,0,0
3.426,3.75,0,0,0,0,0
3.427,3.75,0,0,0,0,0
3.428,3.625,0,0,0,0,0
3.429,3.5625,0,0,0,0,0
3.43,3.25,0,0,0,0,0
3.431,3.125,0,0,0,0,0
3.432,3.125,0,0,0,0,0
3.433,2.9375,0,0,0,0,0
3.434,3.5,0,0,0,0,0
3.435,2.9375,0,0,0,0,0
3.436,3,0,0,0,0,0
3.437,2.8125,0,0,0,0,0
3.438,3.875,0,0,0,0,0
3.439,4.375,0,0,0,0,0
3.44,4.75,0,0,0,0,0
3.441,4.5,0,0,0,0,0
3.442,4.4375,0,0,0,0,0
3.443,4.5,0,0,0,0,0
3.444,3.5625,0,0,0,0,0
3.445,3.25,0,0,0,0,0
3.446,3.4375,0,0,0,0,0
3.447,2.625,0,0,0,0,0
3.448,2.375,0,0,0,0,0
3.449,2.8125,0,0,0,0,0
3.45,3.0625,0,0,0,0,0
3.451,3.25,0,0,0,0,0
3.452,4.1875,0,0,0,0,0
3.453,4.8125,0,0,0,0,0
3.454,4.625,0,0,0,0,0
3.455,4.6875,0,0,0,0,0
3.456,4.5625,0,0,0,0,0
3.457,3.75,0,0,0,0,0
3.458,3.4375,0,0,0,0,1
3.459,3.4375,0,0,0,0,0
3.46,3.3125,0,0,0,0,0
3.461,2.5,0,0,0,0,0
3.462,2.3125,0,0,0,0,0
3.463,1.6875,0,0,0,0,0
3.464,1.625,0,0,0,0,0
3.465,1.6875,0,0,0,0,0
3.466,1.25,0,0,0,0,0
3.467,0.9375,0,0,0,0,0
3.468,0.5625,0,0,0,0,0
3.469,1.0625,0,0,0,0,0
3.47,0.875,0,0,0,0,0
3.471,0.9375,0,0,0,0,0
3.472,0.25,0,0,0,0,0
3.473,0.625,0,0,0,0,0
3.474,0.6875,0,0,0,0,0
3.475,0.75,0,0,0,0,0
3.476,0.1875,0,0,0,0,0
3.477,0.625,0,0,0,0,0
3.478,0.875,0,0,0,0,0
3.479,1.0625,0,0,0,0,0
3.48,1.375,0,0,0,0,0
3.481,2.5,0,0,0,0,0
3.482,3.25,0,0,0,0,0
3.483,3.125,0,0,0,0,0
3.484,2.625,0,0,0,0,0
3.485,2.3125,0,0,0,0,0
3.486,1.875,0,0,0,0,0
3.487,2.5,0,0,0,0,0
3.488,2.625,0,0,0,0,0
3.489,2.8125,0,0,0,0,0
3.49,1.5625,0,0,0,0,0
3.491,0.9375,0,0,0,0,0
3.492,1,0,0,0,0,0
3.493,1.25,0,0,0,0,0
3.494,1.5625,0,0,0,0,0
3.495,2.8125,0,0,0,0,0
3.496,3.125,0,0,0,0,0
3.497,2.625,0,0,0,0,0
3.498,2.6875,0,0,0,0,0
3.499,2.625,0,0,0,0,0
3.5,2.625,0,0,0,0,0
3.501,2.3125,0,0,0,0,0
3.502,2.5,0,0,0,0,0
3.503,2.1875,0,0,0,0,0
3.504,3.4375,0,0,0,0,0
3.505,3.4375,0,0,0,0,0
3.506,3.5625,0,0,0,0,0
3.507,2.5,0,0,0,0,0
3.508,2.5,0,0,0,0,0
3.509,2.3125,0,0,0,0,0
3.51,2.625,0,0,0,0,0
3.511,2.3125,0,0,0,0,0
3.512,2.625,0,0,0,0,0
3.513,1.5625,0,0,0,0,0
3.514,2.0625,0,0,0,0,0
3.515,2.1875,0,0,0,0,0
3.516,2.875,0,0,0,0,0
3.517,2.5,0,0,0,0,0
3.518,2.625,0,0,0,0,0
3.519,2.1875,0,0,0,0,0
3.52,3.0625,0,0,0,0,0
3.521,4.1875,0,0,0,0,0
3.522,3.375,0,0,0,0,0
3.523,2.625,0,0,0,0,0
3.524,1.75,0,0,0,0,0
3.525,1.6875,0,0,0,0,0
3.526,2,0,0,0,0,0
3.527,2.5,0,0,0,0,0
3.528,3,0,0,0,0,0
3.529,3.125,0,0,0,0,0
3.53,2.4375,0,0,0,0,0
3.531,2,0,0,0,0,0
3.532,1.875,0,0,0,0,0
3.533,1.25,0,0,0,0,0
3.534,0.6875,0,0,0,0,0
3.535,0.625,0,0,0,0,0
3.536,0.375,0,0,0,0,0
3.537,0.9375,0,0,0,0,0
3.538,1.9375,0,0,0,0,0
3.539,2.8125,0,0,0,0,0
3.54,3.0625,0,0,0,0,0
3.541,3.125,0,0,0,0,0
3.542,2.9375,0,0,0,0,0
3.543,3.4375,0,0,0,0,0
3.544,2.625,0,0,0,0,0
3.545,2.1875,0,0,0,0,0
3.546,2.5625,0,0,0,0,0
3.547,2.3125,0,0,0,0,0
3.548,3,0,0,0,0,0
3.549,3.4375,0,0,0,0,0
3.55,3.5,0,0,0,0,0
3.551,2.9375,0,0,0,0,0
3.552,2.8125,0,0,0,0,0
3.553,2.8125,0,0,0,0,0
3.554,2.4375,0,0,0,0,0
3.555,2.625,0,0,0,0,0
3.556,3.125,0,0,0,0,0
3.557,3.4375,0,0,0,0,0
3.558,3.5625,0,0,0,0,0
3.559,3.25,0,0,0,0,0
3.56,3.25,0,0,0,0,0
3.561,2.9375,0,0,0,0,0
3.562,3.0625,0,0,0,0,0
3.563,2.8125,0,0,0,0,0
3.564,3.0625,0,0,0,0,0
3.565,2.5,0,0,0,0,0
3.566,3.1875,0,0,0,0,0
3.567,3.25,0,0,0,0,0
3.568,3.1875,0,0,0,0,0
3.569,3.125,0,0,0,0,0
3.57,2.8125,0,0,0,0,0
3.571,2.8125,0,0,0,0,0
3.572,2.6875,0,0,0,0,0
3.573,2.5,0,0,0,0,0
3.574,2.8125,0,0,0,0,0
3.575,2.3125,0,0,0,0,0
3.576,3.875,0,0,0,0,0
3.577,5,0,0,0,0,0
3.578,4.6875,0,0,0,0,0
3.579,4.8125,0,0,0,0,0
3.58,4.8125,0,0,0,0,0
3.581,4.6875,0,0,0,0,0
3.582,4.4375,0,0,0,0,0
3.583,4.1875,0,0,0,0,0
3.584,2.8125,0,0,0,0,0
3.585,1.875,0,0,0,0,0
3.586,2,0,0,0,0,0
3.587,1.6875,0,0,0,0,0
3.588,1.8125,0,0,0,0,0
3.589,2,0,0,0,0,0
3.59,1.8125,0,0,0,0,0
3.591,2.8125,0,0,0,0,0
3.592,3,0,0,0,0,0
3.593,2.9375,0,0,0,0,0
3.594,2,0,0,0,0,0
3.595,2,0,0,0,0,0
3.596,2.4375,0,0,0,0,0
3.597,2.5,0,0,0,0,0
3.598,2.4375,0,0,0,0,0
3.599,2.3125,0,0,0,0,0
3.6,2.5625,0,0,0,0,0
3.601,2.3125,0,0,0,0,0
3.602,1.75,0,0,0,0,0
3.603,1.875,0,0,0,0,0
3.604,2.5625,0,0,0,0,0
3.605,2.3125,0,0,0,0,0
3.606,1.8125,0,0,0,0,0
3.607,1.875,0,0,0,0,0
3.608,3.25,0,0,0,0,0
3.609,3.875,0,0,0,0,0
3.61,2.875,0,0,0,0,0
3.611,3.25,0,0,0,0,0
3.612,1.9375,0,0,0,0,0
3.613,1.375,0,0,0,0,0
3.614,1.1875,0,0,0,0,0
3.615,1.375,0,0,0,0,0
3.616,1.8125,0,0,0,0,0
3.617,2.5,0,0,0,0,0
3.618,2.5,0,0,0,0,0
3.619,3.4375,0,0,0,0,0
3.62,4.1875,0,0,0,0,0
3.621,3.75,0,0,0,0,0
3.622,3.3125,0,0,0,0,0
3.623,2.8125,0,0,0,0,0
3.624,2.9375,0,0,0,0,0
3.625,3.25,0,0,0,0,0
3.626,3.5,0,0,0,0,0
3.627,3.875,0,0,0,0,0
3.628,4,0,0,0,0,0
3.629,4.1875,0,0,0,0,0
3.63,4.25,0,0,0,0,0
3.631,4.1875,0,0,0,0,0
3.632,3.6875,0,0,0,0,0
3.633,3.5625,0,0,0,0,0
3.634,3.5,0,0,0,0,0
3.635,3.75,0,0,0,0,0
3.636,2.875,0,0,0,0,0
3.637,1.6875,0,0,0,0,0
3.638,1.6875,0,0,0,0,0
3.639,0.9375,0,0,0,0,0
3.64,0.625,0,0,0,0,0
3.641,1.5625,0,0,0,0,0
3.642,2.4375,0,0,0,0,0
3.643,2.5,0,0,0,0,0
3.644,1.4375,0,0,0,0,0
3.645,0.625,0,0,0,0,0
3.646,0.0625,0,0,0,0,0
3.647,0.125,0,0,0,0,0
3.648,1.0625,0,0,0,0,0
3.649,1.5625,0,0,0,0,0
3.65,1.875,0,0,0,0,0
3.651,2.1875,0,0,0,0,0
3.652,1.625,0,0,0,0,0
3.653,1.5625,0,0,0,0,0
3.654,1.1875,0,0,0,0,0
3.655,0.4375,0,0,0,0,0
3.656,1.6875,0,0,0,0,0
3.657,2.3125,0,0,0,0,0
3.658,2.0625,0,0,0,0,0
3.659,2.9375,0,0,0,0,0
3.66,2.5625,0,0,0,0,0
3.661,1.875,0,0,0,0,0
3.662,1.5,0,0,0,0,0
3.663,1.6875,0,0,0,0,0
3.664,1.4375,0,0,0,0,0
3.665,1.6875,0,0,0,0,0
3.666,2.1875,0,0,0,0,0
3.667,2,0,0,0,0,0
3.668,1.625,0,0,0,0,0
3.669,1.5625,0,0,0,0,0
3.67,0.875,0,0,0,0,0
3.671,1.0625,0,0,0,0,0
3.672,1.4375,0,0,0,0,0
3.673,1.6875,0,0,0,0,0
3.674,1.5,0,0,0,0,0
3.675,1.375,0,0,0,0,0
3.676,1.4375,0,0,0,0,0
3.677,1.5625,0,0,0,0,0
3.678,2.375,0,0,0,0,0
3.679,2.8125,0,0,0,0,0
3.68,2.625,0,0,0,0,0
3.681,2.625,0,0,0,0,0
3.682,2.9375,0,0,0,0,0
3.683,3.125,0,0,0,0,0
3.684,3.25,0,0,0,0,0
3.685,2.9375,0,0,0,0,0
3.686,2.1875,0,0,0,0,0
3.687,1.6875,0,0,0,0,0
3.688,2,0,0,0,0,0
3.689,2,0,0,0,0,0
3.69,1.6875,0,0,0,0,0
3.691,1.6875,0,0,0,0,0
3.692,2.4375,0,0,0,0,0
3.693,3.125,0,0,0,0,0
3.694,2.4375,0,0,0,0,0
3.695,2.625,0,0,0,0,0
3.696,2.6875,0,0,0,0,0
3.697,3.4375,0,0,0,0,0
3.698,3.3125,0,0,0,0,0
3.699,3.25,0,0,0,0,0
3.7,2.875,0,0,0,0,0
3.701,2.3125,0,0,0,0,0
3.702,3.25,0,0,0,0,0
3.703,2.5,0,0,0,0,0
3.704,2.5625,0,0,0,0,0
3.705,3.125,0,0,0,0,0
3.706,2.625,0,0,0,0,0
3.707,2.5,0,0,0,0,0
3.708,3,0,0,0,0,0
3.709,2.9375,0,0,0,0,0
3.71,1.9375,0,0,0,0,0
3.711,1.375,0,0,0,0,0
3.712,1,0,0,0,0,0
3.713,1.5625,0,0,0,0,0
3.714,1.25,0,0,0,0,0
3.715,1.5625,0,0,0,0,0
3.716,1.5625,0,0,0,0,0
3.717,2.3125,0,0,0,0,0
3.718,1.375,0,0,0,0,0
3.719,0.9375,0,0,0,0,0
3.72,2.0625,0,0,0,0,0
3.721,2.1875,0,0,0,0,0
3.722,2.6875,0,0,0,0,0
3.723,2.9375,0,0,0,0,0
3.724,2.5625,0,0,0,0,0
3.725,2.3125,0,0,0,0,0
3.726,2.625,0,0,0,0,0
3.727,2.3125,0,0,0,0,0
3.728,2.375,0,0,0,0,0
3.729,2.5,0,0,0,0,0
3.73,2.5625,0,0,0,0,0
3.731,2.625,0,0,0,0,0
3.732,2.75,0,0,0,0,0
3.733,3.125,0,0,0,0,0
3.734,3.25,0,0,0,0,0
3.735,2.8125,0,0,0,0,0
3.736,2.1875,0,0,0,0,0
3.737,2.1875,0,0,0,0,0
3.738,2.0625,0,0,0,0,0
3.739,2.5,0,0,0,0,0
3.74,2.9375,0,0,0,0,0
3.741,2.625,0,0,0,0,0
3.742,2.875,0,0,0,0,0
3.743,3.875,0,0,0,0,0
3.744,3.4375,0,0,0,0,0
3.745,3.5625,0,0,0,0,0
3.746,3.375,0,0,0,0,0
3.747,3.25,0,0,0,0,0
3.748,3.4375,0,0,0,0,0
3.749,3.25,0,0,0,0,0
3.75,2.5,0,0,0,0,0
3.751,1.5625,0,0,0,0,0
3.752,-0.3125,0,0,0,0,0
3.753,-2.0625,0,0,0,0,0
3.754,-1.875,0,0,0,0,0
3.755,-1.25,0,0,0,0,0
3.756,-0.8125,0,0,0,0,0
3.757,0.3125,0,0,0,0,0
3.758,0.75,0,0,0,0,0
3.759,1.5625,0,0,0,0,0
3.76,2.0625,0,0,0,0,0
3.761,2.8125,0,0,0,0,0
3.762,3.0625,0,0,0,0,0
3.763,3.4375,0,0,0,0,0
3.764,3.0625,0,0,0,0,0
3.765,3.125,0,0,0,0,0
3.766,2.6875,0,0,0,0,0
3.767,2,0,0,0,0,0
3.768,2.0625,0,0,0,0,0
3.769,1.875,0,0,0,0,0
3.77,1,0,0,0,0,0
3.771,1.5625,0,0,0,0,0
3.772,1.4375,0,0,0,0,0
3.773,1.0625,0,0,0,0,0
3.774,1.1875,0,0,0,0,0
3.775,1.25,0,0,0,0,0
3.776,1.375,0,0,0,0,0
3.777,1.375,0,0,0,0,0
3.778,0.75,0,0,0,0,0
3.779,0.3125,0,0,0,0,0
3.78,0.25,0,0,0,0,0
3.781,1.0625,0,0,0,0,0
3.782,1.5625,0,0,0,0,0
3.783,1.6875,0,0,0,0,0
3.784,1.25,0,0,0,0,0
3.785,0.9375,0,0,0,0,0
3.786,0.75,0,0,0,0,0
3.787,0.75,0,0,0,0,0
3.788,0.6875,0,0,0,0,0
3.789,1.0625,0,0,0,0,0
3.79,1.625,0,0,0,0,0
3.791,1.875,0,0,0,0,0
3.792,2.4375,0,0,0,0,0
3.793,2.8125,0,0,0,0,0
3.794,3.125,0,0,0,0,0
3.795,2.5,0,0,0,0,0
3.796,2.9375,0,0,0,0,0
3.797,2.8125,0,0,0,0,0
3.798,2.5,0,0,0,0,0
3.799,2.3125,0,0,0,0,0
3.8,2.5,0,0,0,0,0
3.801,2.625,0,0,0,0,0
3.802,2.8125,0,0,0,0,0
3.803,2.5,0,0,0,0,0
3.804,2.5625,0,0,0,0,0
3.805,2.8125,0,0,0,0,0
3.806,2.25,0,0,0,0,0
3.807,2.1875,0,0,0,0,0
3.808,2.875,0,0,0,0,0
3.809,3.4375,0,0,0,0,0
3.81,3.375,0,0,0,0,0
3.811,3.25,0,0,0,0,0
3.812,2.9375,0,0,0,0,0
3.813,3.25,0,0,0,0,0
3.814,3.25,0,0,0,0,0
3.815,3.125,0,0,0,0,0
3.816,2.875,0,0,0,0,0
3.817,2.1875,0,0,0,0,0
3.818,1.6875,0,0,0,0,0
3.819,0.3125,0,0,0,0,0
3.82,0.75,0,0,0,0,0
3.821,0.625,0,0,0,0,0
3.822,1.25,0,0,0,0,0
3.823,2,0,0,0,0,0
3.824,1.625,0,0,0,0,0
3.825,2,0,0,0,0,0
3.826,1.75,0,0,0,0,0
3.827,1.0625,0,0,0,0,0
3.828,0.6875,0,0,0,0,0
3.829,0.75,0,0,0,0,0
3.83,0.875,0,0,0,0,0
3.831,1.0625,0,0,0,0,0
3.832,1.1875,0,0,0,0,0
3.833,1.0625,0,0,0,0,0
3.834,1.8125,0,0,0,0,0
3.835,2.3125,0,0,0,0,0
3.836,2.0625,0,0,0,0,0
3.837,2.625,0,0,0,0,0
3.838,3,0,0,0,0,0
3.839,3.4375,0,0,0,0,0
3.84,3.375,0,0,0,0,0
3.841,3.125,0,0,0,0,0
3.842,1.875,0,0,0,0,0
3.843,1.375,0,0,0,0,0
3.844,1,0,0,0,0,0
3.845,0.625,0,0,0,0,0
3.846,0.6875,0,0,0,0,0
3.847,1.375,0,0,0,0,0
3.848,2.8125,0,0,0,0,0
3.849,3.125,0,0,0,0,0
3.85,3.25,0,0,0,0,0
3.851,2.5,0,0,0,0,0
3.852,2.4375,0,0,0,0,0
3.853,2.5,0,0,0,0,0
3.854,2.8125,0,0,0,0,0
3.855,3.5625,0,0,0,0,0
3.856,3.875,0,0,0,0,0
3.857,3.5625,0,0,0,0,0
3.858,3.375,0,0,0,0,0
3.859,3.75,0,0,0,0,0
3.86,2.8125,0,0,0,0,0
3.861,1.6875,0,0,0,0,0
3.862,1.1875,0,0,0,0,0
3.863,2.5,0,0,0,0,0
3.864,3.1875,0,0,0,0,0
3.865,3.125,0,0,0,0,0
3.866,3.625,0,0,0,0,0
3.867,4.6875,0,0,0,0,0
3.868,4.5,0,0,0,0,0
3.869,4.375,0,0,0,0,0
3.87,4.5,0,0,0,0,0
3.871,4.5,0,0,0,0,0
3.872,4.5,0,0,0,0,0
3.873,4.1875,0,0,0,0,0
3.874,4.125,0,0,0,0,0
3.875,4.5,0,0,0,0,0
3.876,4.625,0,0,0,0,0
3.877,4.1875,0,0,0,0,0
3.878,4.25,0,0,0,0,0
3.879,3.75,0,0,0,0,0
3.88,3.875,0,0,0,0,0
3.881,3.75,0,0,0,0,0
3.882,3.75,0,0,0,0,0
3.883,3.875,0,0,0,0,0
3.884,3.8125,0,0,0,0,0
3.885,3.75,0,0,0,0,0
3.886,2.875,0,0,0,0,0
3.887,2.3125,0,0,0,0,0
3.888,2.625,0,0,0,0,0
3.889,2.625,0,0,0,0,0
3.89,2.5625,0,0,0,0,0
3.891,3.4375,0,0,0,0,0
3.892,3.625,0,0,0,0,0
3.893,3.75,0,0,0,0,0
3.894,3.375,0,0,0,0,0
3.895,2.9375,0,0,0,0,0
3.896,3.3125,0,0,0,0,0
3.897,3.25,0,0,0,0,0
3.898,3.8125,0,0,0,0,0
3.899,3.4375,0,0,0,0,0
3.9,3.1875,0,0,0,0,0
3.901,3.875,0,0,0,0,0
3.902,4.125,0,0,0,0,0
3.903,4.0625,0,0,0,0,0
3.904,3.4375,0,0,0,0,0
3.905,3.5625,0,0,0,0,0
3.906,3.875,0,0,0,0,0
3.907,3.4375,0,0,0,0,0
3.908,3.4375,0,0,0,0,0
3.909,3.5625,0,0,0,0,0
3.91,3.375,0,0,0,0,0
3.911,2.8125,0,0,0,0,0
3.912,2.6875,0,0,0,0,0
3.913,2.625,0,0,0,0,0
3.914,3.0625,0,0,0,0,0
3.915,3.75,0,0,0,0,0
3.916,4.0625,0,0,0,0,0
3.917,4.0625,0,0,0,0,0
3.918,3.375,0,0,0,0,0
3.919,3.25,0,0,0,0,0
3.92,3,0,0,0,0,0
3.921,2.8125,0,0,0,0,0
3.922,2.875,0,0,0,0,0
3.923,3.125,0,0,0,0,0
3.924,3.375,0,0,0,0,0
3.925,3.75,0,0,0,0,0
3.926,3.375,0,0,0,0,0
3.927,3.25,0,0,0,0,0
3.928,3.25,0,0,0,0,0
3.929,3.25,0,0,0,0,0
3.93,1.75,0,0,0,0,0
3.931,1.0625,0,0,0,0,0
3.932,1.5,0,0,0,0,0
3.933,1.375,0,0,0,0,0
3.934,1.1875,0,0,0,0,0
3.935,1.0625,0,0,0,0,0
3.936,1.8125,0,0,0,0,0
3.937,2.5,0,0,0,0,0
3.938,2.1875,0,0,0,0,0
3.939,1.875,0,0,0,0,0
3.94,1,0,0,0,0,0
3.941,0.4375,0,0,0,0,0
3.942,-0.125,0,0,0,0,0
3.943,-0.3125,0,0,0,0,0
3.944,0.4375,0,0,0,0,0
3.945,0,0,0,0,0,0
3.946,-0.1875,0,0,0,0,0
3.947,-0.5,0,0,0,0,0
3.948,-0.5,0,0,0,0,0
3.949,-0.1875,0,0,0,0,0
3.95,0.3125,0,0,0,0,0
3.951,0.125,0,0,0,0,0
3.952,0.125,0,0,0,0,0
3.953,0.3125,0,0,0,0,0
3.954,0.9375,0,0,0,0,0
3.955,1.0625,0,0,0,0,0
3.956,1.5625,0,0,0,0,0
3.957,1.5625,0,0,0,0,0
3.958,1.0625,0,0,0,0,0
3.959,1.6875,0,0,0,0,0
3.96,2.4375,0,0,0,0,0
3.961,3.4375,0,0,0,0,0
3.962,2.5,0,0,0,0,0
3.963,2.1875,0,0,0,0,0
3.964,1.75,0,0,0,0,0
3.965,1.5625,0,0,0,0,0
3.966,1.3125,0,0,0,0,0
3.967,0.75,0,0,0,0,0
3.968,1.625,0,0,0,0,0
3.969,1.375,0,0,0,0,0
3.97,1.5625,0,0,0,0,0
3.971,2.3125,0,0,0,0,0
3.972,2.25,0,0,0,0,0
3.973,2.1875,0,0,0,0,0
3.974,1.75,0,0,0,0,0
3.975,1.875,0,0,0,0,0
3.976,2.625,0,0,0,0,0
3.977,2.5,0,0,0,0,0
3.978,3.1875,0,0,0,0,0
3.979,3.4375,0,0,0,0,0
3.98,4.375,0,0,0,0,0
3.981,5.125,0,0,0,0,0
3.982,4.75,0,0,0,0,0
3.983,5,0,0,0,0,0
3.984,5.0625,0,0,0,0,0
3.985,5,0,0,0,0,0
3.986,4.5625,0,0,0,0,0
3.987,4.375,0,0,0,0,0
3.988,4.1875,0,0,0,0,0
3.989,4.1875,0,0,0,0,0
3.99,4.4375,0,0,0,0,0
3.991,4.1875,0,0,0,0,0
3.992,3.4375,0,0,0,0,0
3.993,2.8125,0,0,0,0,0
3.994,2.625,0,0,0,0,0
3.995,2,0,0,0,0,0
3.996,2.5625,0,0,0,0,0
3.997,2,0,0,0,0,0
3.998,1.125,0,0,0,0,0
3.999,0.125,0,0,0,0,0
4,-0.875,0,0,0,0,0
4.001,-0.5,0,0,0,0,0
4.002,-0.4375,0,0,0,0,0
4.003,-0.8125,0,0,0,0,0
4.004,-0.25,0,0,0,0,0
4.005,-0.5,0,0,0,0,0
4.006,-0.75,0,0,0,0,0
4.007,-0.625,0,0,0,0,0
4.008,-0.5,0,0,0,0,0
4.009,-0.1875,0,0,0,0,0
4.01,0.0625,0,0,0,0,0
4.011,0.625,0,0,0,0,0
4.012,1.5625,0,0,0,0,0
4.013,2.1875,0,0,0,0,0
4.014,1.9375,0,0,0,0,0
4.015,2.3125,0,0,0,0,0
4.016,2.375,0,0,0,0,0
4.017,2.625,0,0,0,0,0
4.018,2.5,0,0,0,0,0
4.019,2.1875,0,0,0,0,0
4.02,2.125,0,0,0,0,0
4.021,2.1875,0,0,0,0,0
4.022,1.875,0,0,0,0,0
4.023,1.6875,0,0,0,0,0
4.024,0.375,0,0,0,0,0
4.025,-0.1875,0,0,0,0,0
4.026,0,0,0,0,0,0
4.027,0.4375,0,0,0,0,0
4.028,1.0625,0,0,0,0,0
4.029,0.75,0,0,0,0,0
4.03,1.875,0,0,0,0,0
4.031,2.9375,0,0,0,0,0
4.032,3.5,0,0,0,0,0
4.033,3.4375,0,0,0,0,0
4.034,3.5,0,0,0,0,0
4.035,3.125,0,0,0,0,0
4.036,3.125,0,0,0,0,0
4.037,2.3125,0,0,0,0,0
4.038,1.625,0,0,0,0,0
4.039,0.9375,0,0,0,0,0
4.04,1.75,0,0,0,0,0
4.041,2.9375,0,0,0,0,0
4.042,2.6875,0,0,0,0,0
4.043,2.8125,0,0,0,0,0
4.044,2.5625,0,0,0,0,0
4.045,2.625,0,0,0,0,0
4.046,1.5625,0,0,0,0,0
4.047,1.875,0,0,0,0,0
4.048,2.3125,0,0,0,0,0
4.049,2.5,0,0,0,0,0
4.05,2.75,0,0,0,0,0
4.051,2.5,0,0,0,0,0
4.052,1.8125,0,0,0,0,0
4.053,1.6875,0,0,0,0,0
4.054,0.5625,0,0,0,0,0
4.055,0.9375,0,0,0,0,0
4.056,2.1875,0,0,0,0,0
4.057,2.9375,0,0,0,0,0
4.058,2.5,0,0,0,0,0
4.059,2.5,0,0,0,0,0
4.06,2.9375,0,0,0,0,0
4.061,3.25,0,0,0,0,0
4.062,2.625,0,0,0,0,0
4.063,2.625,0,0,0,0,0
4.064,2.5,0,0,0,0,0
4.065,1.875,0,0,0,0,0
4.066,1.375,0,0,0,0,0
4.067,0.75,0,0,0,0,0
4.068,1.375,0,0,0,0,0
4.069,2.5,0,0,0,0,0
4.07,2.9375,0,0,0,0,0
4.071,3.4375,0,0,0,0,0
4.072,4.125,0,0,0,0,0
4.073,4.6875,0,0,0,0,0
4.074,5.125,0,0,0,0,0
4.075,5.3125,0,0,0,0,0
4.076,5.875,0,0,0,0,0
4.077,6.0625,0,0,0,0,0
4.078,5.8125,0,0,0,0,0
4.079,4.8125,0,0,0,0,0
4.08,3.4375,0,0,0,0,0
4.081,2.8125,0,0,0,0,0
4.082,1.875,0,0,0,0,0
4.083,0.9375,0,0,0,0,0
4.084,-0.5625,0,0,0,0,0
4.085,-1.4375,1,0,0,0,0
4.086,-2.3125,0,0,0,0,0
4.087,-2.375,0,0,0,0,0
4.088,-1.625,0,0,0,0,0
4.089,-1.25,0,0,0,0,0
4.09,-0.1875,0,0,0,0,0
4.091,0.4375,0,0,0,0,0
4.092,1.4375,0,0,0,0,0
4.093,2.1875,0,0,0,0,0
4.094,2.375,0,0,0,0,0
4.095,2,0,0,0,0,0
4.096,0.875,0,0,0,0,0
4.097,-1.25,0,0,0,0,0
4.098,-4.25,0,0,0,0,0
4.099,-7.0625,0,0,0,0,0
4.1,-9.4375,0,0,0,0,0
4.101,-12.5,0,0,0,0,0
4.102,-15.375,0,0,0,0,0
4.103,-17.375,0,1,0,0,0
4.104,-18.375,0,0,0,0,0
4.105,-19.688,0,0,0,0,0
4.106,-19.25,0,0,0,0,0
4.107,-18.438,0,0,0,0,0
4.108,-19.188,0,0,0,0,0
4.109,-18.75,0,0,0,0,0
4.11,-17.625,0,0,0,0,0
4.111,-16.75,0,0,0,0,0
4.112,-17.125,0,0,0,0,0
4.113,-17.688,0,0,0,0,0
4.114,-16.313,0,0,0,0,0
4.115,-15.625,0,0,0,0,0
4.116,-14.938,0,0,0,0,0
4.117,-14.25,0,0,0,0,0
4.118,-12.125,0,0,0,0,0
4.119,-9.375,0,0,0,0,0
4.12,-6.9375,0,0,0,0,0
4.121,-4.25,0,0,0,0,0
4.122,-1.625,0,0,0,0,0
4.123,0.4375,0,0,0,0,0
4.124,2.25,0,0,0,0,0
4.125,3.25,0,0,0,0,0
4.126,4,0,0,0,0,0
4.127,4.375,0,0,0,0,0
4.128,5.0625,0,0,0,0,0
4.129,5.125,0,0,1,0,0
4.13,4.375,0,0,0,0,0
4.131,3.25,0,0,0,0,0
4.132,3.25,0,0,0,0,0
4.133,2.625,0,0,0,0,0
4.134,2.75,0,0,0,0,0
4.135,3.125,0,0,0,0,0
4.136,3.625,0,0,0,0,0
4.137,3.75,0,0,0,0,0
4.138,2.8125,0,0,0,0,0
4.139,2.9375,0,0,0,0,0
4.14,2.6875,0,0,0,0,0
4.141,2.5,0,0,0,0,0
4.142,2.25,0,0,0,0,0
4.143,1.6875,0,0,0,0,0
4.144,1.375,0,0,0,0,0
4.145,1.375,0,0,0,0,0
4.146,1.5,0,0,0,0,0
4.147,1.5625,0,0,0,0,0
4.148,1.3125,0,0,0,0,0
4.149,1.375,0,0,0,0,0
4.15,1.5625,0,0,0,0,0
4.151,1.5625,0,0,0,0,0
4.152,1.0625,0,0,0,0,0
4.153,0.9375,0,0,0,0,0
4.154,0.9375,0,0,0,0,0
4.155,0.3125,0,0,0,0,0
4.156,0.875,0,0,0,0,0
4.157,1.375,0,0,0,0,0
4.158,1.875,0,0,0,0,0
4.159,1.0625,0,0,0,0,0
4.16,1.125,0,0,0,0,0
4.161,1.0625,0,0,0,0,0
4.162,0.0625,0,0,0,0,0
4.163,0.4375,0,0,0,0,0
4.164,1.375,0,0,0,0,0
4.165,2,0,0,0,0,0
4.166,2.4375,0,0,0,0,0
4.167,2.625,0,0,0,0,0
4.168,3.25,0,0,0,0,0
4.169,3.25,0,0,0,0,0
4.17,3.375,0,0,0,0,0
4.171,3.5625,0,0,0,0,0
4.172,4.125,0,0,0,0,0
4.173,3.4375,0,0,0,0,0
4.174,3.75,0,0,0,0,0
4.175,3.875,0,0,0,0,0
4.176,4,0,0,0,0,0
4.177,3.875,0,0,0,0,0
4.178,3.875,0,0,0,0,0
4.179,3.875,0,0,0,0,0
4.18,3.125,0,0,0,0,0
4.181,2.8125,0,0,0,0,0
4.182,2.375,0,0,0,0,0
4.183,2.625,0,0,0,0,0
4.184,1.875,0,0,0,0,0
4.185,1.25,0,0,0,0,0
4.186,1,0,0,0,0,0
4.187,0.75,0,0,0,0,0
4.188,1,0,0,0,0,0
4.189,0.9375,0,0,0,0,0
4.19,1.0625,0,0,0,0,0
4.191,0.9375,0,0,0,0,0
4.192,0.125,0,0,0,0,0
4.193,-0.8125,0,0,0,0,0
4.194,-1.375,0,0,0,0,0
4.195,-2.0625,0,0,0,0,0
4.196,-1.4375,0,0,0,0,0
4.197,-1.4375,0,0,0,0,0
4.198,-1.4375,0,0,0,0,0
4.199,-1.25,0,0,0,0,0
4.2,0.3125,0,0,0,0,0
4.201,0.9375,0,0,0,0,0
4.202,0.125,0,0,0,0,0
4.203,0.3125,0,0,0,0,0
4.204,0.5,0,0,0,0,0
4.205,0.3125,0,0,0,0,0
4.206,1,0,0,0,0,0
4.207,0.75,0,0,0,0,0
4.208,0.6875,0,0,0,0,0
4.209,2,0,0,0,0,0
4.21,2,0,0,0,0,0
4.211,1.875,0,0,0,0,0
4.212,1.4375,0,0,0,0,0
4.213,1.375,0,0,0,0,0
4.214,1.625,0,0,0,0,0
4.215,1.875,0,0,0,0,0
4.216,2.5,0,0,0,0,0
4.217,2.3125,0,0,0,0,0
4.218,1.625,0,0,0,0,0
4.219,1.25,0,0,0,0,0
4.22,1.6875,0,0,0,0,0
4.221,1.6875,0,0,0,0,0
4.222,1.3125,0,0,0,0,0
4.223,1.25,0,0,0,0,0
4.224,1.375,0,0,0,0,0
4.225,2.1875,0,0,0,0,0
4.226,1.125,0,0,0,0,0
4.227,1.5625,0,0,0,0,0
4.228,1.625,0,0,0,0,0
4.229,1.25,0,0,0,0,0
4.23,1.375,0,0,0,0,0
4.231,1.0625,0,0,0,0,0
4.232,0.8125,0,0,0,0,0
4.233,-0.1875,0,0,0,0,0
4.234,-0.6875,0,0,0,0,0
4.235,0,0,0,0,0,0
4.236,-0.0625,0,0,0,0,0
4.237,-0.3125,0,0,0,0,0
4.238,0.25,0,0,0,0,0
4.239,0,0,0,0,0,0
4.24,0.25,0,0,0,0,0
4.241,0.75,0,0,0,0,0
4.242,1.0625,0,0,0,0,0
4.243,1.875,0,0,0,0,0
4.244,1.6875,0,0,0,0,0
4.245,1.875,0,0,0,0,0
4.246,2.3125,0,0,0,0,0
4.247,1.875,0,0,0,0,0
4.248,1.625,0,0,0,0,0
4.249,1.5625,0,0,0,0,0
4.25,1.4375,0,0,0,0,0
4.251,1.5625,0,0,0,0,0
4.252,2,0,0,0,0,0
4.253,1.875,0,0,0,0,0
4.254,2,0,0,0,0,0
4.255,2.625,0,0,0,0,0
4.256,3.125,0,0,0,0,0
4.257,3.4375,0,0,0,0,0
4.258,3.1875,0,0,0,0,0
4.259,2.5,0,0,0,0,0
4.26,1.9375,0,0,0,0,0
4.261,1.6875,0,0,0,0,0
4.262,2.0625,0,0,0,0,0
4.263,1.875,0,0,0,0,0
4.264,1.625,0,0,0,0,0
4.265,1.0625,0,0,0,0,0
4.266,1.4375,0,0,0,0,0
4.267,1.0625,0,0,0,0,0
4.268,0.375,0,0,0,0,0
4.269,0,0,0,0,0,0
4.27,0.6875,0,0,0,0,0
4.271,1.5625,0,0,0,0,0
4.272,1.875,0,0,0,0,0
4.273,1.25,0,0,0,0,0
4.274,1.125,0,0,0,0,0
4.275,0.75,0,0,0,0,0
4.276,-0.4375,0,0,0,0,0
4.277,-0.8125,0,0,0,0,0
4.278,-0.3125,0,0,0,0,0
4.279,0,0,0,0,0,0
4.28,1,0,0,0,0,0
4.281,1.6875,0,0,0,0,0
4.282,2.375,0,0,0,0,0
4.283,2.9375,0,0,0,0,0
4.284,4.125,0,0,0,0,0
4.285,4.1875,0,0,0,0,0
4.286,3.125,0,0,0,0,0
4.287,2.625,0,0,0,0,0
4.288,2.1875,0,0,0,0,0
4.289,1.6875,0,0,0,0,0
4.29,1.0625,0,0,0,0,0
4.291,0.75,0,0,0,0,0
4.292,0.25,0,0,0,0,0
4.293,0.125,0,0,0,0,0
4.294,1.25,0,0,0,0,0
4.295,1.375,0,0,0,0,0
4.296,0.4375,0,0,0,0,0
4.297,-0.9375,0,0,0,0,0
4.298,-1.5625,0,0,0,0,0
4.299,-2.1875,0,0,0,0,0
4.3,-0.1875,0,0,0,0,0
4.301,0.4375,0,0,0,0,0
4.302,0.1875,0,0,0,0,0
4.303,-0.1875,0,0,0,0,0
4.304,0.5,0,0,0,0,0
4.305,0.3125,0,0,0,0,0
4.306,-0.125,0,0,0,0,0
4.307,0.4375,0,0,0,0,0
4.308,0.0625,0,0,0,0,0
4.309,0.625,0,0,0,0,0
4.31,0.625,0,0,0,0,0
4.311,0.9375,0,0,0,0,0
4.312,1.875,0,0,0,0,0
4.313,1.5625,0,0,0,0,0
4.314,1.625,0,0,0,0,0
4.315,2.3125,0,0,0,0,0
4.316,2.375,0,0,0,0,0
4.317,3.125,0,0,0,0,0
4.318,2.6875,0,0,0,0,0
4.319,2.5,0,0,0,0,0
4.32,2.8125,0,0,0,0,0
4.321,2.9375,0,0,0,0,0
4.322,2.625,0,0,0,0,0
4.323,2.8125,0,0,0,0,0
4.324,2.5,0,0,0,0,0
4.325,2,0,0,0,0,0
4.326,1.875,0,0,0,0,0
4.327,1.875,0,0,0,0,0
4.328,2.125,0,0,0,0,0
4.329,2.3125,0,0,0,0,0
4.33,2.875,0,0,0,0,0
4.331,3.25,0,0,0,0,0
4.332,2.3125,0,0,0,0,0
4.333,2.1875,0,0,0,0,0
4.334,2,0,0,0,0,0
4.335,2.625,0,0,0,0,0
4.336,2.125,0,0,0,0,0
4.337,1.6875,0,0,0,0,0
4.338,3.4375,0,0,0,0,0
4.339,4.1875,0,0,0,0,0
4.34,3.8125,0,0,0,0,0
4.341,4.0625,0,0,0,0,0
4.342,4.3125,0,0,0,0,0
4.343,4.0625,0,0,0,0,0
4.344,3.6875,0,0,0,0,0
4.345,3.75,0,0,0,0,0
4.346,3.8125,0,0,0,0,0
4.347,3.875,0,0,0,0,0
4.348,4.0625,0,0,0,0,0
4.349,4.375,0,0,0,0,0
4.35,4.625,0,0,0,0,0
4.351,5,0,0,0,0,0
4.352,5,0,0,0,0,0
4.353,5,0,0,0,0,0
4.354,5.1875,0,0,0,0,0
4.355,4.6875,0,0,0,0,0
4.356,4.875,0,0,0,0,0
4.357,4.1875,0,0,0,0,0
4.358,3.625,0,0,0,0,0
4.359,2.9375,0,0,0,0,0
4.36,3.9375,0,0,0,0,0
4.361,3.875,0,0,0,0,0
4.362,3.5625,0,0,0,0,0
4.363,4.5,0,0,0,0,0
4.364,5.1875,0,0,0,0,0
4.365,5,0,0,0,0,0
4.366,4.8125,0,0,0,0,0
4.367,5,0,0,0,0,0
4.368,4.5625,0,0,0,0,0
4.369,5,0,0,0,0,0
4.37,5,0,0,0,0,0
4.371,4.8125,0,0,0,0,0
4.372,4.5,0,0,0,0,0
4.373,4.5,0,0,0,0,0
4.374,4.4375,0,0,0,0,0
4.375,4.8125,0,0,0,0,0
4.376,5.1875,0,0,0,0,0
4.377,5.625,0,0,0,0,0
4.378,5.8125,0,0,0,0,0
4.379,6.25,0,0,0,0,0
4.38,6.1875,0,0,0,0,0
4.381,5.4375,0,0,0,0,0
4.382,4.8125,0,0,0,0,0
4.383,4.375,0,0,0,0,0
4.384,3.9375,0,0,0,0,0
4.385,3.875,0,0,0,0,0
4.386,4.375,0,0,0,0,0
4.387,5,0,0,0,0,0
4.388,5.875,0,0,0,0,0
4.389,7.5,0,0,0,0,0
4.39,7.5,0,0,0,0,0
4.391,7.625,0,0,0,0,0
4.392,7.9375,0,0,0,0,0
4.393,6.875,0,0,0,0,0
4.394,7.0625,0,0,0,0,0
4.395,7,0,0,0,0,0
4.396,7.6875,0,0,0,0,0
4.397,7.3125,0,0,0,0,0
4.398,6.75,0,0,0,0,0
4.399,6.875,0,0,0,0,0
4.4,6.9375,0,0,0,0,0
4.401,6.0625,0,0,0,0,0
4.402,5.5625,0,0,0,0,0
4.403,5.4375,0,0,0,0,0
4.404,5.8125,0,0,0,0,0
4.405,5.625,0,0,0,0,0
4.406,6.125,0,0,0,0,0
4.407,5.9375,0,0,0,0,0
4.408,6.375,0,0,0,0,0
4.409,6.25,0,0,0,0,0
4.41,6.3125,0,0,0,0,0
4.411,6.875,0,0,0,0,0
4.412,7.75,0,0,0,0,0
4.413,8.25,0,0,0,0,0
4.414,7.5625,0,0,0,0,0
4.415,7.625,0,0,0,0,0
4.416,7.5625,0,0,0,0,0
4.417,7.625,0,0,0,0,0
4.418,8.3125,0,0,0,0,0
4.419,8.125,0,0,0,0,0
4.42,7.625,0,0,0,0,0
4.421,7.5,0,0,0,0,0
4.422,7.125,0,0,0,0,0
4.423,7.5,0,0,0,0,0
4.424,8.1875,0,0,0,0,0
4.425,8.75,0,0,0,1,0
4.426,7.9375,0,0,0,0,0
4.427,7.9375,0,0,0,0,0
4.428,7.875,0,0,0,0,0
4.429,7.9375,0,0,0,0,0
4.43,8.1875,0,0,0,0,0
4.431,8.4375,0,0,0,0,0
4.432,8.5,0,0,0,0,0
4.433,8.4375,0,0,0,0,0
4.434,8.125,0,0,0,0,0
4.435,8.25,0,0,0,0,0
4.436,8.625,0,0,0,0,0
4.437,8.25,0,0,0,0,0
4.438,7.875,0,0,0,0,0
4.439,7.8125,0,0,0,0,0
4.44,7.5,0,0,0,0,0
4.441,7,0,0,0,0,0
4.442,7.0625,0,0,0,0,0
4.443,6.875,0,0,0,0,0
4.444,6.3125,0,0,0,0,0
4.445,6.375,0,0,0,0,0
4.446,6.0625,0,0,0,0,0
4.447,6.25,0,0,0,0,0
4.448,5.5625,0,0,0,0,0
4.449,6.0625,0,0,0,0,0
4.45,6.4375,0,0,0,0,0
4.451,5.9375,0,0,0,0,0
4.452,5.6875,0,0,0,0,0
4.453,5.75,0,0,0,0,0
4.454,5.0625,0,0,0,0,0
4.455,5,0,0,0,0,0
4.456,4.4375,0,0,0,0,0
4.457,4.0625,0,0,0,0,0
4.458,4.0625,0,0,0,0,0
4.459,4.375,0,0,0,0,0
4.46,4.4375,0,0,0,0,0
4.461,4.8125,0,0,0,0,0
4.462,5.375,0,0,0,0,0
4.463,5.125,0,0,0,0,0
4.464,4,0,0,0,0,0
4.465,3.75,0,0,0,0,0
4.466,4.9375,0,0,0,0,0
4.467,4.375,0,0,0,0,0
4.468,3.6875,0,0,0,0,0
4.469,3.5625,0,0,0,0,0
4.47,4.375,0,0,0,0,0
4.471,4.5,0,0,0,0,0
4.472,4.375,0,0,0,0,0
4.473,3.875,0,0,0,0,0
4.474,3.5,0,0,0,0,0
4.475,3.5625,0,0,0,0,0
4.476,3.6875,0,0,0,0,0
4.477,3.4375,0,0,0,0,0
4.478,3.0625,0,0,0,0,0
4.479,2.5,0,0,0,0,0
4.48,2.5,0,0,0,0,0
4.481,3.4375,0,0,0,0,0
4.482,3.125,0,0,0,0,0
4.483,3.4375,0,0,0,0,0
4.484,2.625,0,0,0,0,0
4.485,2.5,0,0,0,0,0
4.486,2.375,0,0,0,0,0
4.487,2.8125,0,0,0,0,0
4.488,2.625,0,0,0,0,0
4.489,2.8125,0,0,0,0,0
4.49,3.9375,0,0,0,0,0
4.491,4.1875,0,0,0,0,0
4.492,3.9375,0,0,0,0,0
4.493,4.1875,0,0,0,0,0
4.494,3.625,0,0,0,0,0
4.495,3.4375,0,0,0,0,0
4.496,3.6875,0,0,0,0,0
4.497,3.5625,0,0,0,0,0
4.498,2.8125,0,0,0,0,0
4.499,2.5,0,0,0,0,0
4.5,2.9375,0,0,0,0,0
4.501,2.8125,0,0,0,0,0
4.502,2.5,0,0,0,0,0
4.503,2.625,0,0,0,0,0
4.504,2.5625,0,0,0,0,0
4.505,2.5,0,0,0,0,0
4.506,2.1875,0,0,0,0,0
4.507,2.1875,0,0,0,0,0
4.508,1.6875,0,0,0,0,0
4.509,1.875,0,0,0,0,0
4.51,2.1875,0,0,0,0,0
4.511,2.1875,0,0,0,0,0
4.512,1.625,0,0,0,0,0
4.513,1.25,0,0,0,0,0
4.514,0.5625,0,0,0,0,0
4.515,-0.1875,0,0,0,0,0
4.516,0.6875,0,0,0,0,0
4.517,0.3125,0,0,0,0,0
4.518,0.8125,0,0,0,0,0
4.519,1.25,0,0,0,0,0
4.52,2.0625,0,0,0,0,1
4.521,2.3125,0,0,0,0,0
4.522,2.625,0,0,0,0,0
4.523,2.1875,0,0,0,0,0
4.524,2.5,0,0,0,0,0
4.525,2.625,0,0,0,0,0
4.526,2.625,0,0,0,0,0
4.527,2,0,0,0,0,0
4.528,2.125,0,0,0,0,0
4.529,2.3125,0,0,0,0,0
4.53,1.875,0,0,0,0,0
4.531,2.1875,0,0,0,0,0
4.532,2.875,0,0,0,0,0
4.533,2.5,0,0,0,0,0
4.534,1.625,0,0,0,0,0
4.535,0.625,0,0,0,0,0
4.536,0.25,0,0,0,0,0
4.537,-0.3125,0,0,0,0,0
4.538,1,0,0,0,0,0
4.539,1.6875,0,0,0,0,0
4.54,2,0,0,0,0,0
4.541,1.875,0,0,0,0,0
4.542,3.5625,0,0,0,0,0
4.543,4.6875,0,0,0,0,0
4.544,4,0,0,0,0,0
4.545,4.6875,0,0,0,0,0
4.546,4.8125,0,0,0,0,0
4.547,4.5,0,0,0,0,0
4.548,3.375,0,0,0,0,0
4.549,2.9375,0,0,0,0,0
4.55,3.5625,0,0,0,0,0
4.551,4.6875,0,0,0,0,0
4.552,3.4375,0,0,0,0,0
4.553,3.4375,0,0,0,0,0
4.554,2.375,0,0,0,0,0
4.555,2.8125,0,0,0,0,0
4.556,2.8125,0,0,0,0,0
4.557,2.8125,0,0,0,0,0
4.558,2.375,0,0,0,0,0
4.559,2.8125,0,0,0,0,0
4.56,2.0625,0,0,0,0,0
4.561,2.8125,0,0,0,0,0
4.562,3.1875,0,0,0,0,0
4.563,3.875,0,0,0,0,0
4.564,3.25,0,0,0,0,0
4.565,3.875,0,0,0,0,0
4.566,3.5625,0,0,0,0,0
4.567,3.5625,0,0,0,0,0
4.568,3.9375,0,0,0,0,0
4.569,3.875,0,0,0,0,0
4.57,3.8125,0,0,0,0,0
4.571,3.25,0,0,0,0,0
4.572,3.375,0,0,0,0,0
4.573,3.25,0,0,0,0,0
4.574,3.4375,0,0,0,0,0
4.575,3.25,0,0,0,0,0
4.576,3.25,0,0,0,0,0
4.577,3.5625,0,0,0,0,0
4.578,3.6875,0,0,0,0,0
4.579,3.875,0,0,0,0,0
4.58,4.0625,0,0,0,0,0
4.581,4.0625,0,0,0,0,0
4.582,4.8125,0,0,0,0,0
4.583,4.8125,0,0,0,0,0
4.584,4.25,0,0,0,0,0
4.585,3.75,0,0,0,0,0
4.586,3.3125,0,0,0,0,0
4.587,2.625,0,0,0,0,0
4.588,2,0,0,0,0,0
4.589,1.6875,0,0,0,0,0
4.59,2.8125,0,0,0,0,0
4.591,2.8125,0,0,0,0,0
4.592,2.875,0,0,0,0,0
4.593,3.4375,0,0,0,0,0
4.594,3.3125,0,0,0,0,0
4.595,3.4375,0,0,0,0,0
4.596,3.1875,0,0,0,0,0
4.597,3.4375,0,0,0,0,0
4.598,2.875,0,0,0,0,0
4.599,2.9375,0,0,0,0,0
4.6,3.6875,0,0,0,0,0
4.601,3.4375,0,0,0,0,0
4.602,3.0625,0,0,0,0,0
4.603,3.4375,0,0,0,0,0
4.604,3.6875,0,0,0,0,0
4.605,3.875,0,0,0,0,0
4.606,3.4375,0,0,0,0,0
4.607,3.25,0,0,0,0,0
4.608,2.9375,0,0,0,0,0
4.609,3.125,0,0,0,0,0
4.61,3,0,0,0,0,0
4.611,2.9375,0,0,0,0,0
4.612,2.1875,0,0,0,0,0
4.613,2.5,0,0,0,0,0
4.614,2.1875,0,0,0,0,0
4.615,2.1875,0,0,0,0,0
4.616,2.625,0,0,0,0,0
4.617,2.8125,0,0,0,0,0
4.618,2.875,0,0,0,0,0
4.619,3.125,0,0,0,0,0
4.62,3.1875,0,0,0,0,0
4.621,3.5625,0,0,0,0,0
4.622,2.1875,0,0,0,0,0
4.623,2,0,0,0,0,0
4.624,2.25,0,0,0,0,0
4.625,2,0,0,0,0,0
4.626,3.1875,0,0,0,0,0
4.627,3.75,0,0,0,0,0
4.628,3.0625,0,0,0,0,0
4.629,3.125,0,0,0,0,0
4.63,3.0625,0,0,0,0,0
4.631,2.3125,0,0,0,0,0
4.632,1.4375,0,0,0,0,0
4.633,1.25,0,0,0,0,0
4.634,1.125,0,0,0,0,0
4.635,0.625,0,0,0,0,0
4.636,1.1875,0,0,0,0,0
4.637,1.5625,0,0,0,0,0
4.638,2.9375,0,0,0,0,0
4.639,3.5625,0,0,0,0,0
4.64,3.625,0,0,0,0,0
4.641,3.4375,0,0,0,0,0
4.642,3.8125,0,0,0,0,0
4.643,3.75,0,0,0,0,0
4.644,2.5625,0,0,0,0,0
4.645,1.875,0,0,0,0,0
4.646,2.5,0,0,0,0,0
4.647,3.125,0,0,0,0,0
4.648,2.875,0,0,0,0,0
4.649,2.9375,0,0,0,0,0
4.65,3.25,0,0,0,0,0
4.651,3.5625,0,0,0,0,0
4.652,3.5,0,0,0,0,0
4.653,3.4375,0,0,0,0,0
4.654,3.3125,0,0,0,0,0
4.655,3.5625,0,0,0,0,0
4.656,3.875,0,0,0,0,0
4.657,3.4375,0,0,0,0,0
4.658,3.9375,0,0,0,0,0
4.659,3.4375,0,0,0,0,0
4.66,3.75,0,0,0,0,0
4.661,3.75,0,0,0,0,0
4.662,3.875,0,0,0,0,0
4.663,3.4375,0,0,0,0,0
4.664,3.8125,0,0,0,0,0
4.665,3.25,0,0,0,0,0
4.666,3.375,0,0,0,0,0
4.667,3.875,0,0,0,0,0
4.668,3.3125,0,0,0,0,0
4.669,3.25,0,0,0,0,0
4.67,3.0625,0,0,0,0,0
4.671,3.125,0,0,0,0,0
4.672,3.3125,0,0,0,0,0
4.673,2.8125,0,0,0,0,0
4.674,2.4375,0,0,0,0,0
4.675,2.3125,0,0,0,0,0
4.676,2.875,0,0,0,0,0
4.677,3.25,0,0,0,0,0
4.678,3,0,0,0,0,0
4.679,2.3125,0,0,0,0,0
4.68,2.9375,0,0,0,0,0
4.681,3.4375,0,0,0,0,0
4.682,4,0,0,0,0,0
4.683,4.0625,0,0,0,0,0
4.684,2.8125,0,0,0,0,0
4.685,2.625,0,0,0,0,0
4.686,2.625,0,0,0,0,0
4.687,2.5,0,0,0,0,0
4.688,3.25,0,0,0,0,0
4.689,3.5625,0,0,0,0,0
4.69,2.6875,0,0,0,0,0
4.691,1.6875,0,0,0,0,0
4.692,1.9375,0,0,0,0,0
4.693,2,0,0,0,0,0
4.694,2.3125,0,0,0,0,0
4.695,2.9375,0,0,0,0,0
4.696,3,0,0,0,0,0
4.697,2.8125,0,0,0,0,0
4.698,2.875,0,0,0,0,0
4.699,2.625,0,0,0,0,0
4.7,2.6875,0,0,0,0,0
4.701,2.8125,0,0,0,0,0
4.702,2.625,0,0,0,0,0
4.703,3.4375,0,0,0,0,0
4.704,3.375,0,0,0,0,0
4.705,2.8125,0,0,0,0,0
4.706,3,0,0,0,0,0
4.707,2.625,0,0,0,0,0
4.708,2.625,0,0,0,0,0
4.709,2.5,0,0,0,0,0
4.71,3.125,0,0,0,0,0
4.711,2.9375,0,0,0,0,0
4.712,2.1875,0,0,0,0,0
4.713,2,0,0,0,0,0
4.714,2.0625,0,0,0,0,0
4.715,1.6875,0,0,0,0,0
4.716,1.875,0,0,0,0,0
4.717,1.375,0,0,0,0,0
4.718,1.8125,0,0,0,0,0
4.719,2.1875,0,0,0,0,0
4.72,2.5,0,0,0,0,0
4.721,2.625,0,0,0,0,0
4.722,2.6875,0,0,0,0,0
4.723,2.625,0,0,0,0,0
4.724,2.6875,0,0,0,0,0
4.725,2.5,0,0,0,0,0
4.726,1.9375,0,0,0,0,0
4.727,1.875,0,0,0,0,0
4.728,2.1875,0,0,0,0,0
4.729,2.5,0,0,0,0,0
4.73,2.875,0,0,0,0,0
4.731,3.5625,0,0,0,0,0
4.732,3.3125,0,0,0,0,0
4.733,3.125,0,0,0,0,0
4.734,2.9375,0,0,0,0,0
4.735,3.125,0,0,0,0,0
4.736,3.6875,0,0,0,0,0
4.737,3.75,0,0,0,0,0
4.738,3.8125,0,0,0,0,0
4.739,3.75,0,0,0,0,0
4.74,2.8125,0,0,0,0,0
4.741,1.375,0,0,0,0,0
4.742,1.9375,0,0,0,0,0
4.743,1.5625,0,0,0,0,0
4.744,1.6875,0,0,0,0,0
4.745,1.6875,0,0,0,0,0
4.746,1.9375,0,0,0,0,0
4.747,1.875,0,0,0,0,0
4.748,1.8125,0,0,0,0,0
4.749,2.8125,0,0,0,0,0
4.75,2,0,0,0,0,0
4.751,2.5,0,0,0,0,0
4.752,3.375,0,0,0,0,0
4.753,3.125,0,0,0,0,0
4.754,2.9375,0,0,0,0,0
4.755,3.4375,0,0,0,0,0
4.756,3.1875,0,0,0,0,0
4.757,2.9375,0,0,0,0,0
4.758,3.1875,0,0,0,0,0
4.759,2.9375,0,0,0,0,0
4.76,4.0625,0,0,0,0,0
4.761,3.5625,0,0,0,0,0
4.762,3.6875,0,0,0,0,0
4.763,3.875,0,0,0,0,0
4.764,4.4375,0,0,0,0,0
4.765,3.875,0,0,0,0,0
4.766,3.1875,0,0,0,0,0
4.767,2.8125,0,0,0,0,0
4.768,2.4375,0,0,0,0,0
4.769,2.9375,0,0,0,0,0
4.77,2.75,0,0,0,0,0
4.771,2.3125,0,0,0,0,0
4.772,1.5,0,0,0,0,0
4.773,1.5625,0,0,0,0,0
4.774,1.8125,0,0,0,0,0
4.775,1.875,0,0,0,0,0
4.776,1.9375,0,0,0,0,0
4.777,2,0,0,0,0,0
4.778,1.875,0,0,0,0,0
4.779,1.875,0,0,0,0,0
4.78,2.1875,0,0,0,0,0
4.781,2.5,0,0,0,0,0
4.782,2.125,0,0,0,0,0
4.783,2.5,0,0,0,0,0
4.784,3,0,0,0,0,0
4.785,2.625,0,0,0,0,0
4.786,3.0625,0,0,0,0,0
4.787,3.125,0,0,0,0,0
4.788,2.625,0,0,0,0,0
4.789,2.8125,0,0,0,0,0
4.79,2.5625,0,0,0,0,0
4.791,2.9375,0,0,0,0,0
4.792,2.5,0,0,0,0,0
4.793,2.625,0,0,0,0,0
4.794,2.375,0,0,0,0,0
4.795,2,0,0,0,0,0
4.796,2.0625,0,0,0,0,0
4.797,1.6875,0,0,0,0,0
4.798,2.0625,0,0,0,0,0
4.799,2.3125,0,0,0,0,0
4.8,3.125,0,0,0,0,0
4.801,4.0625,0,0,0,0,0
4.802,4.8125,0,0,0,0,0
4.803,5.9375,0,0,0,0,0
4.804,5,0,0,0,0,0
4.805,4.6875,0,0,0,0,0
4.806,3.9375,0,0,0,0,0
4.807,3.5625,0,0,0,0,0
4.808,3,0,0,0,0,0
4.809,2.625,0,0,0,0,0
4.81,2.625,0,0,0,0,0
4.811,2.625,0,0,0,0,0
4.812,2.5,0,0,0,0,0
4.813,2.8125,0,0,0,0,0
4.814,2.1875,0,0,0,0,0
4.815,1.25,0,0,0,0,0
4.816,1.875,0,0,0,0,0
4.817,2.3125,0,0,0,0,0
4.818,1.875,0,0,0,0,0
4.819,2.8125,0,0,0,0,0
4.82,2.625,0,0,0,0,0
4.821,2.1875,0,0,0,0,0
4.822,2.4375,0,0,0,0,0
4.823,2.625,0,0,0,0,0
4.824,2.5625,0,0,0,0,0
4.825,2.3125,0,0,0,0,0
4.826,2.5,0,0,0,0,0
4.827,2.9375,0,0,0,0,0
4.828,2.375,0,0,0,0,0
4.829,2.5,0,0,0,0,0
4.83,2.4375,0,0,0,0,0
4.831,2,0,0,0,0,0
4.832,1.875,0,0,0,0,0
4.833,1.875,0,0,0,0,0
4.834,1.625,0,0,0,0,0
4.835,1.5625,0,0,0,0,0
4.836,1,0,0,0,0,0
4.837,0.9375,0,0,0,0,0
4.838,0.875,0,0,0,0,0
4.839,0.4375,0,0,0,0,0
4.84,0.8125,0,0,0,0,0
4.841,0.75,0,0,0,0,0
4.842,1.9375,0,0,0,0,0
4.843,2,0,0,0,0,0
4.844,2.9375,0,0,0,0,0
4.845,3.4375,0,0,0,0,0
4.846,3.4375,0,0,0,0,0
4.847,3.5625,0,0,0,0,0
4.848,3.5,0,0,0,0,0
4.849,3.4375,0,0,0,0,0
4.85,3.875,0,0,0,0,0
4.851,3.875,0,0,0,0,0
4.852,3.375,0,0,0,0,0
4.853,3.125,0,0,0,0,0
4.854,2.5625,0,0,0,0,0
4.855,2.5,0,0,0,0,0
4.856,2.5625,0,0,0,0,0
4.857,2.5,0,0,0,0,0
4.858,2.6875,0,0,0,0,0
4.859,2.9375,0,0,0,0,0
4.86,2.5625,0,0,0,0,0
4.861,2.8125,0,0,0,0,0
4.862,3.25,0,0,0,0,0
4.863,3.5625,0,0,0,0,0
4.864,3.4375,0,0,0,0,0
4.865,2.8125,0,0,0,0,0
4.866,2.5,0,0,0,0,0
4.867,1.25,0,0,0,0,0
4.868,2.1875,0,0,0,0,0
4.869,2.5,0,0,0,0,0
4.87,2.5625,0,0,0,0,0
4.871,2.8125,0,0,0,0,0
4.872,2.125,0,0,0,0,0
4.873,2.1875,0,0,0,0,0
4.874,2.75,0,0,0,0,0
4.875,2.9375,0,0,0,0,0
4.876,2.875,0,0,0,0,0
4.877,3.25,0,0,0,0,0
4.878,3,0,0,0,0,0
4.879,2.8125,0,0,0,0,0
4.88,2.875,0,0,0,0,0
4.881,2.8125,0,0,0,0,0
4.882,3.25,0,0,0,0,0
4.883,3.4375,0,0,0,0,0
4.884,2.875,0,0,0,0,0
4.885,3.125,0,0,0,0,0
4.886,2.5625,0,0,0,0,0
4.887,2,0,0,0,0,0
4.888,2.0625,0,0,0,0,0
4.889,2,0,0,0,0,0
4.89,2.5625,0,0,0,0,0
4.891,3.875,0,0,0,0,0
4.892,3.125,0,0,0,0,0
4.893,2.3125,0,0,0,0,0
4.894,1.9375,0,0,0,0,0
4.895,2.1875,0,0,0,0,0
4.896,3.125,0,0,0,0,0
4.897,2.9375,0,0,0,0,0
4.898,3.5,0,0,0,0,0
4.899,3.125,0,0,0,0,0
4.9,3.0625,0,0,0,0,0
4.901,2.9375,0,0,0,0,0
4.902,3.0625,0,0,0,0,0
4.903,3.5625,0,0,0,0,0
4.904,4.125,0,0,0,0,0
4.905,4.0625,0,0,0,0,0
4.906,3.875,0,0,0,0,0
4.907,4.375,0,0,0,0,0
4.908,4.8125,0,0,0,0,0
4.909,5.125,0,0,0,0,0
4.91,3.9375,0,0,0,0,0
4.911,4.5,0,0,0,0,0
4.912,5.4375,0,0,0,0,0
4.913,5.625,0,0,0,0,0
4.914,4.75,0,0,0,0,0
4.915,4.375,0,0,0,0,0
4.916,3.875,0,0,0,0,0
4.917,3.4375,0,0,0,0,0
4.918,3.75,0,0,0,0,0
4.919,3.875,0,0,0,0,0
4.92,4.1875,0,0,0,0,0
4.921,4.1875,0,0,0,0,0
4.922,3.75,0,0,0,0,0
4.923,3.75,0,0,0,0,0
4.924,4.125,0,0,0,0,0
4.925,4.0625,0,0,0,0,0
4.926,3.9375,0,0,0,0,0
4.927,3.125,0,0,0,0,0
4.928,3.125,0,0,0,0,0
4.929,2.8125,0,0,0,0,0
4.93,2.8125,0,0,0,0,0
4.931,2.9375,0,0,0,0,0
4.932,3.4375,0,0,0,0,0
4.933,3.875,0,0,0,0,0
4.934,3.875,0,0,0,0,0
4.935,4.1875,0,0,0,0,0
4.936,4.25,0,0,0,0,0
4.937,3.875,0,0,0,0,0
4.938,3.5625,0,0,0,0,0
4.939,4.1875,0,0,0,0,0
4.94,4.625,0,0,0,0,0
4.941,5,0,0,0,0,0
4.942,4.875,0,0,0,0,0
4.943,4.6875,0,0,0,0,0
4.944,3.9375,0,0,0,0,0
4.945,2.8125,0,0,0,0,0
4.946,3.625,0,0,0,0,0
4.947,3.5625,0,0,0,0,0
4.948,3.125,0,0,0,0,0
4.949,3.5625,0,0,0,0,0
4.95,3.8125,0,0,0,0,0
4.951,3.75,0,0,0,0,0
4.952,3.1875,0,0,0,0,0
4.953,3.4375,0,0,0,0,0
4.954,3.9375,0,0,0,0,0
4.955,3.75,0,0,0,0,0
4.956,3.6875,0,0,0,0,0
4.957,3.75,0,0,0,0,0
4.958,3.875,0,0,0,0,0
4.959,3.5625,0,0,0,0,0
4.96,3.9375,0,0,0,0,0
4.961,4.375,0,0,0,0,0
4.962,3.875,0,0,0,0,0
4.963,3.5625,0,0,0,0,0
4.964,4.0625,0,0,0,0,0
4.965,4.1875,0,0,0,0,0
4.966,3.625,0,0,0,0,0
4.967,3.5625,0,0,0,0,0
4.968,3.8125,0,0,0,0,0
4.969,4.0625,0,0,0,0,0
4.97,3.5,0,0,0,0,0
4.971,3.125,0,0,0,0,0
4.972,3.1875,0,0,0,0,0
4.973,3.25,0,0,0,0,0
4.974,3.375,0,0,0,0,0
4.975,3.75,0,0,0,0,0
4.976,4.0625,0,0,0,0,0
4.977,4.375,0,0,0,0,0
4.978,3.875,0,0,0,0,0
4.979,4.1875,0,0,0,0,0
4.98,4.4375,0,0,0,0,0
4.981,4.1875,0,0,0,0,0
4.982,3.1875,0,0,0,0,0
4.983,2.1875,0,0,0,0,0
4.984,2.4375,0,0,0,0,0
4.985,2.5,0,0,0,0,0
4.986,1.75,0,0,0,0,0
4.987,0.9375,0,0,0,0,0
4.988,1.125,0,0,0,0,0
4.989,1.5625,0,0,0,0,0
4.99,1.125,0,0,0,0,0
4.991,1.25,0,0,0,0,0
4.992,1.9375,0,0,0,0,0
4.993,1.375,0,0,0,0,0
4.994,1.1875,0,0,0,0,0
4.995,0.9375,0,0,0,0,0
4.996,0.625,0,0,0,0,0
4.997,0.625,0,0,0,0,0
4.998,1.6875,0,0,0,0,0
4.999,2.1875,0,0,0,0,0
5,2.3125,0,0,0,0,0
5.001,2.625,0,0,0,0,0
5.002,2.375,0,0,0,0,0
5.003,1.6875,0,0,0,0,0
5.004,1.875,0,0,0,0,0
5.005,1.5625,0,0,0,0,0
5.006,1.1875,0,0,0,0,0
5.007,1.875,0,0,0,0,0
5.008,2.625,0,0,0,0,0
5.009,3.75,0,0,0,0,0
5.01,3.5625,0,0,0,0,0
5.011,4.0625,0,0,0,0,0
5.012,3.8125,0,0,0,0,0
5.013,3.875,0,0,0,0,0
5.014,4,0,0,0,0,0
5.015,3.75,0,0,0,0,0
5.016,4.3125,0,0,0,0,0
5.017,3.75,0,0,0,0,0
5.018,3.125,0,0,0,0,0
5.019,3.125,0,0,0,0,0
5.02,2.8125,0,0,0,0,0
5.021,2.5,0,0,0,0,0
5.022,2,0,0,0,0,0
5.023,2,0,0,0,0,0
5.024,1.9375,0,0,0,0,0
5.025,0.9375,0,0,0,0,0
5.026,1.0625,0,0,0,0,0
5.027,0.75,0,0,0,0,0
5.028,1.75,0,0,0,0,0
5.029,2.625,0,0,0,0,0
5.03,2.4375,0,0,0,0,0
5.031,2.8125,0,0,0,0,0
5.032,2.625,0,0,0,0,0
5.033,2.3125,0,0,0,0,0
5.034,1.75,0,0,0,0,0
5.035,1.25,0,0,0,0,0
5.036,1.75,0,0,0,0,0
5.037,2.625,0,0,0,0,0
5.038,2.5,0,0,0,0,0
5.039,1.875,0,0,0,0,0
5.04,2.1875,0,0,0,0,0
5.041,2.625,0,0,0,0,0
5.042,2.5,0,0,0,0,0
5.043,2,0,0,0,0,0
5.044,2.6875,0,0,0,0,0
5.045,2.3125,0,0,0,0,0
5.046,1.8125,0,0,0,0,0
5.047,1.0625,0,0,0,0,0
5.048,0.5625,0,0,0,0,0
5.049,1.375,0,0,0,0,0
5.05,1.125,0,0,0,0,0
5.051,0.4375,0,0,0,0,0
5.052,1.1875,0,0,0,0,0
5.053,1.0625,0,0,0,0,0
5.054,1,0,0,0,0,0
5.055,1.25,0,0,0,0,0
5.056,1.5,0,0,0,0,0
5.057,2,0,0,0,0,0
5.058,2.5625,0,0,0,0,0
5.059,3.4375,0,0,0,0,0
5.06,4.1875,0,0,0,0,0
5.061,4.6875,0,0,0,0,0
5.062,3,0,0,0,0,0
5.063,1.875,0,0,0,0,0
5.064,1.1875,0,0,0,0,0
5.065,0.75,0,0,0,0,0
5.066,1.3125,0,0,0,0,0
5.067,1.6875,0,0,0,0,0
5.068,2.4375,0,0,0,0,0
5.069,3.25,0,0,0,0,0
5.07,3.875,0,0,0,0,0
5.071,4.6875,0,0,0,0,0
5.072,3.4375,0,0,0,0,0
5.073,2.9375,0,0,0,0,0
5.074,2.5,0,0,0,0,0
5.075,2.3125,0,0,0,0,0
5.076,2.375,0,0,0,0,0
5.077,1.5625,0,0,0,0,0
5.078,0.5,0,0,0,0,0
5.079,-0.5,0,0,0,0,0
5.08,0.25,0,0,0,0,0
5.081,0.3125,0,0,0,0,0
5.082,0.875,0,0,0,0,0
5.083,1.0625,0,0,0,0,0
5.084,1.8125,0,0,0,0,0
5.085,1.875,0,0,0,0,0
5.086,2.1875,0,0,0,0,0
5.087,2.5,0,0,0,0,0
5.088,1.9375,0,0,0,0,0
5.089,1.6875,0,0,0,0,0
5.09,1.4375,0,0,0,0,0
5.091,1.5625,0,0,0,0,0
5.092,1.6875,0,0,0,0,0
5.093,2.1875,0,0,0,0,0
5.094,1.6875,0,0,0,0,0
5.095,2.625,0,0,0,0,0
5.096,3.125,0,0,0,0,0
5.097,3.25,0,0,0,0,0
5.098,3.6875,0,0,0,0,0
5.099,3.5625,0,0,0,0,0
5.1,3.3125,0,0,0,0,0
5.101,3.75,0,0,0,0,0
5.102,3.0625,0,0,0,0,0
5.103,3.875,0,0,0,0,0
5.104,4,0,0,0,0,0
5.105,3.5625,0,0,0,0,0
5.106,3.9375,0,0,0,0,0
5.107,4.8125,0,0,0,0,0
5.108,5,0,0,0,0,0
5.109,5,0,0,0,0,0
5.11,4.5625,0,0,0,0,0
5.111,4.8125,0,0,0,0,0
5.112,5.4375,0,0,0,0,0
5.113,5.625,0,0,0,0,0
5.114,5.4375,0,0,0,0,0
5.115,5.125,0,0,0,0,0
5.116,4.8125,0,0,0,0,0
5.117,5,0,0,0,0,0
5.118,4.9375,0,0,0,0,0
5.119,4.8125,0,0,0,0,0
5.12,4.8125,0,0,0,0,0
5.121,4.6875,0,0,0,0,0
5.122,5.1875,0,0,0,0,0
5.123,5.4375,0,0,0,0,0
5.124,5.1875,0,0,0,0,0
5.125,4.5,0,0,0,0,0
5.126,5.75,0,0,0,0,0
5.127,6.375,0,0,0,0,0
5.128,5.75,0,0,0,0,0
5.129,5.9375,0,0,0,0,0
5.13,4.75,0,0,0,0,0
5.131,3.5625,0,0,0,0,0
5.132,2.0625,0,0,0,0,0
5.133,1.25,0,0,0,0,0
5.134,0.3125,0,0,0,0,0
5.135,0.125,0,0,0,0,0
5.136,0.375,1,0,0,0,0
5.137,0.125,0,0,0,0,0
5.138,1.125,0,0,0,0,0
5.139,1.6875,0,0,0,0,0
5.14,2.5,0,0,0,0,0
5.141,2.9375,0,0,0,0,0
5.142,2.9375,0,0,0,0,0
5.143,2.3125,0,0,0,0,0
5.144,1.0625,0,0,0,0,0
5.145,-1.4375,0,0,0,0,0
5.146,-5.5,0,0,0,0,0
5.147,-9.375,0,0,0,0,0
5.148,-11.563,0,0,0,0,0
5.149,-14.375,0,0,0,0,0
5.15,-17.313,0,0,0,0,0
5.151,-19.25,0,0,0,0,0
5.152,-20.625,0,0,0,0,0
5.153,-22.375,0,0,0,0,0
5.154,-22.438,0,0,0,0,0
5.155,-22.188,0,1,0,0,0
5.156,-22,0,0,0,0,0
5.157,-20.5,0,0,0,0,0
5.158,-18.813,0,0,0,0,0
5.159,-17.5,0,0,0,0,0
5.16,-16.875,0,0,0,0,0
5.161,-16.438,0,0,0,0,0
5.162,-16.125,0,0,0,0,0
5.163,-16.438,0,0,0,0,0
5.164,-15.125,0,0,0,0,0
5.165,-13.75,0,0,0,0,0
5.166,-11.938,0,0,0,0,0
5.167,-9.5625,0,0,0,0,0
5.168,-7,0,0,0,0,0
5.169,-4.25,0,0,0,0,0
5.17,-2.5,0,0,0,0,0
5.171,-1.25,0,0,0,0,0
5.172,-0.625,0,0,0,0,0
5.173,-0.8125,0,0,0,0,0
5.174,0.4375,0,0,0,0,0
5.175,1.375,0,0,0,0,0
5.176,2.3125,0,0,0,0,0
5.177,2.625,0,0,0,0,0
5.178,3.375,0,0,0,0,0
5.179,3.75,0,0,0,0,0
5.18,3.6875,0,0,0,0,0
5.181,3.125,0,0,1,0,0
5.182,2.75,0,0,0,0,0
5.183,2.5,0,0,0,0,0
5.184,2.6875,0,0,0,0,0
5.185,2.5,0,0,0,0,0
5.186,1.8125,0,0,0,0,0
5.187,2.3125,0,0,0,0,0
5.188,2.3125,0,0,0,0,0
5.189,2.5,0,0,0,0,0
5.19,2.9375,0,0,0,0,0
5.191,3.125,0,0,0,0,0
5.192,2.5,0,0,0,0,0
5.193,2.1875,0,0,0,0,0
5.194,2.125,0,0,0,0,0
5.195,2,0,0,0,0,0
5.196,1.8125,0,0,0,0,0
5.197,1.875,0,0,0,0,0
5.198,2,0,0,0,0,0
5.199,2,0,0,0,0,0
5.2,1.75,0,0,0,0,0
5.201,1.875,0,0,0,0,0
5.202,2.5,0,0,0,0,0
5.203,2.625,0,0,0,0,0
5.204,2.6875,0,0,0,0,0
5.205,2.5,0,0,0,0,0
5.206,2.5,0,0,0,0,0
5.207,1.25,0,0,0,0,0
5.208,1.4375,0,0,0,0,0
5.209,1.5625,0,0,0,0,0
5.21,0.9375,0,0,0,0,0
5.211,1.6875,0,0,0,0,0
5.212,2,0,0,0,0,0
5.213,2,0,0,0,0,0
5.214,1.6875,0,0,0,0,0
5.215,1.25,0,0,0,0,0
5.216,1.4375,0,0,0,0,0
5.217,0.9375,0,0,0,0,0
5.218,0.5,0,0,0,0,0
5.219,0.3125,0,0,0,0,0
5.22,1,0,0,0,0,0
5.221,0.4375,0,0,0,0,0
5.222,0.5,0,0,0,0,0
5.223,0.3125,0,0,0,0,0
5.224,0.8125,0,0,0,0,0
5.225,1.0625,0,0,0,0,0
5.226,0.9375,0,0,0,0,0
5.227,0.75,0,0,0,0,0
5.228,0.875,0,0,0,0,0
5.229,1.5625,0,0,0,0,0
5.23,1.5,0,0,0,0,0
5.231,2.1875,0,0,0,0,0
5.232,2.3125,0,0,0,0,0
5.233,2.625,0,0,0,0,0
5.234,2.3125,0,0,0,0,0
5.235,1.875,0,0,0,0,0
5.236,2.0625,0,0,0,0,0
5.237,2,0,0,0,0,0
5.238,2.25,0,0,0,0,0
5.239,2.1875,0,0,0,0,0
5.24,2.5,0,0,0,0,0
5.241,2.8125,0,0,0,0,0
5.242,2.6875,0,0,0,0,0
5.243,2.625,0,0,0,0,0
5.244,3.1875,0,0,0,0,0
5.245,3.125,0,0,0,0,0
5.246,2.875,0,0,0,0,0
5.247,2.8125,0,0,0,0,0
5.248,3.8125,0,0,0,0,0
5.249,3.875,0,0,0,0,0
5.25,2.4375,0,0,0,0,0
5.251,1.875,0,0,0,0,0
5.252,1.125,0,0,0,0,0
5.253,0,0,0,0,0,0
5.254,0.6875,0,0,0,0,0
5.255,0.4375,0,0,0,0,0
5.256,0,0,0,0,0,0
5.257,0.9375,0,0,0,0,0
5.258,0.875,0,0,0,0,0
5.259,0.625,0,0,0,0,0
5.26,0.375,0,0,0,0,0
5.261,0.4375,0,0,0,0,0
5.262,0.375,0,0,0,0,0
5.263,0.3125,0,0,0,0,0
5.264,0.875,0,0,0,0,0
5.265,0.625,0,0,0,0,0
5.266,0.375,0,0,0,0,0
5.267,0.4375,0,0,0,0,0
5.268,1.3125,0,0,0,0,0
5.269,1.6875,0,0,0,0,0
5.27,1.8125,0,0,0,0,0
5.271,2.3125,0,0,0,0,0
5.272,2.1875,0,0,0,0,0
5.273,2.625,0,0,0,0,0
5.274,1.375,0,0,0,0,0
5.275,1.5625,0,0,0,0,0
5.276,1.8125,0,0,0,0,0
5.277,1.5625,0,0,0,0,0
5.278,2.0625,0,0,0,0,0
5.279,2.1875,0,0,0,0,0
5.28,3,0,0,0,0,0
5.281,3.25,0,0,0,0,0
5.282,2.75,0,0,0,0,0
5.283,3.25,0,0,0,0,0
5.284,1.625,0,0,0,0,0
5.285,-0.1875,0,0,0,0,0
5.286,0.125,0,0,0,0,0
5.287,-0.3125,0,0,0,0,0
5.288,0.125,0,0,0,0,0
5.289,0.9375,0,0,0,0,0
5.29,0.75,0,0,0,0,0
5.291,1.0625,0,0,0,0,0
5.292,0.8125,0,0,0,0,0
5.293,1.0625,0,0,0,0,0
5.294,2.125,0,0,0,0,0
5.295,2.1875,0,0,0,0,0
5.296,2.4375,0,0,0,0,0
5.297,2.8125,0,0,0,0,0
5.298,2.75,0,0,0,0,0
5.299,3.125,0,0,0,0,0
5.3,2.875,0,0,0,0,0
5.301,2,0,0,0,0,0
5.302,1.75,0,0,0,0,0
5.303,2,0,0,0,0,0
5.304,2.125,0,0,0,0,0
5.305,2,0,0,0,0,0
5.306,2.125,0,0,0,0,0
5.307,1.875,0,0,0,0,0
5.308,1.75,0,0,0,0,0
5.309,1.875,0,0,0,0,0
5.31,2.3125,0,0,0,0,0
5.311,2.3125,0,0,0,0,0
5.312,2.3125,0,0,0,0,0
5.313,2,0,0,0,0,0
5.314,2.5625,0,0,0,0,0
5.315,2.5,0,0,0,0,0
5.316,2.3125,0,0,0,0,0
5.317,2.5,0,0,0,0,0
5.318,1.875,0,0,0,0,0
5.319,1.375,0,0,0,0,0
5.32,1.625,0,0,0,0,0
5.321,0.9375,0,0,0,0,0
5.322,1.8125,0,0,0,0,0
5.323,2.5,0,0,0,0,0
5.324,1.4375,0,0,0,0,0
5.325,1.25,0,0,0,0,0
5.326,1.1875,0,0,0,0,0
5.327,1.0625,0,0,0,0,0
5.328,1.4375,0,0,0,0,0
5.329,1.5625,0,0,0,0,0
5.33,1.875,0,0,0,0,0
5.331,2,0,0,0,0,0
5.332,2.6875,0,0,0,0,0
5.333,2.3125,0,0,0,0,0
5.334,2.3125,0,0,0,0,0
5.335,2.9375,0,0,0,0,0
5.336,3.4375,0,0,0,0,0
5.337,3.875,0,0,0,0,0
5.338,3.25,0,0,0,0,0
5.339,2.9375,0,0,0,0,0
5.34,2.75,0,0,0,0,0
5.341,2.9375,0,0,0,0,0
5.342,3.25,0,0,0,0,0
5.343,2.625,0,0,0,0,0
5.344,2.5,0,0,0,0,0
5.345,1.875,0,0,0,0,0
5.346,1.25,0,0,0,0,0
5.347,0.625,0,0,0,0,0
5.348,1.875,0,0,0,0,0
5.349,1.6875,0,0,0,0,0
5.35,1.375,0,0,0,0,0
5.351,0.9375,0,0,0,0,0
5.352,1.625,0,0,0,0,0
5.353,1.5625,0,0,0,0,0
5.354,1.0625,0,0,0,0,0
5.355,1.6875,0,0,0,0,0
5.356,1.8125,0,0,0,0,0
5.357,2.9375,0,0,0,0,0
5.358,2.875,0,0,0,0,0
5.359,3.125,0,0,0,0,0
5.36,3.75,0,0,0,0,0
5.361,3.125,0,0,0,0,0
5.362,2.75,0,0,0,0,0
5.363,2.9375,0,0,0,0,0
5.364,2.4375,0,0,0,0,0
5.365,2.5,0,0,0,0,0
5.366,2.1875,0,0,0,0,0
5.367,2.1875,0,0,0,0,0
5.368,2.75,0,0,0,0,0
5.369,3.125,0,0,0,0,0
5.37,3,0,0,0,0,0
5.371,3.4375,0,0,0,0,0
5.372,3.5,0,0,0,0,0
5.373,3.4375,0,0,0,0,0
5.374,3.4375,0,0,0,0,0
5.375,3.5625,0,0,0,0,0
5.376,3.8125,0,0,0,0,0
5.377,3.875,0,0,0,0,0
5.378,3.875,0,0,0,0,0
5.379,3.75,0,0,0,0,0
5.38,3.375,0,0,0,0,0
5.381,3.875,0,0,0,0,0
5.382,3.5,0,0,0,0,0
5.383,3.875,0,0,0,0,0
5.384,3.625,0,0,0,0,0
5.385,3.4375,0,0,0,0,0
5.386,4.375,0,0,0,0,0
5.387,4.375,0,0,0,0,0
5.388,3.875,0,0,0,0,0
5.389,4.0625,0,0,0,0,0
5.39,3.75,0,0,0,0,0
5.391,2.9375,0,0,0,0,0
5.392,2.5,0,0,0,0,0
5.393,2.5,0,0,0,0,0
5.394,2.625,0,0,0,0,0
5.395,2.8125,0,0,0,0,0
5.396,3.0625,0,0,0,0,0
5.397,3.5625,0,0,0,0,0
5.398,3.75,0,0,0,0,0
5.399,4.0625,0,0,0,0,0
5.4,5,0,0,0,0,0
5.401,5.9375,0,0,0,0,0
5.402,7.125,0,0,0,0,0
5.403,7.8125,0,0,0,0,0
5.404,7.75,0,0,0,0,0
5.405,6.875,0,0,0,0,0
5.406,5.8125,0,0,0,0,0
5.407,4.5,0,0,0,0,0
5.408,5.5,0,0,0,0,0
5.409,5.4375,0,0,0,0,0
5.41,5.25,0,0,0,0,0
5.411,6.375,0,0,0,0,0
5.412,7.125,0,0,0,0,0
5.413,6.875,0,0,0,0,0
5.414,6.125,0,0,0,0,0
5.415,5.625,0,0,0,0,0
5.416,5.0625,0,0,0,0,0
5.417,5.3125,0,0,0,0,0
5.418,5.5625,0,0,0,0,0
5.419,5.625,0,0,0,0,0
5.42,5.5,0,0,0,0,0
5.421,5.75,0,0,0,0,0
5.422,5.5625,0,0,0,0,0
5.423,5.9375,0,0,0,0,0
5.424,5.9375,0,0,0,0,0
5.425,5.9375,0,0,0,0,0
5.426,5.6875,0,0,0,0,0
5.427,5.625,0,0,0,0,0
5.428,5.9375,0,0,0,0,0
5.429,5.625,0,0,0,0,0
5.43,5.9375,0,0,0,0,0
5.431,6.5625,0,0,0,0,0
5.432,6.25,0,0,0,0,0
5.433,6.25,0,0,0,0,0
5.434,6.5,0,0,0,0,0
5.435,6.6875,0,0,0,0,0
5.436,6.4375,0,0,0,0,0
5.437,6.875,0,0,0,0,0
5.438,6.6875,0,0,0,0,0
5.439,6.6875,0,0,0,0,0
5.44,7.75,0,0,0,0,0
5.441,7.5,0,0,0,0,0
5.442,7.3125,0,0,0,0,0
5.443,6.875,0,0,0,0,0
5.444,7.5,0,0,0,0,0
5.445,7,0,0,0,0,0
5.446,6.6875,0,0,0,0,0
5.447,7,0,0,0,0,0
5.448,7.8125,0,0,0,0,0
5.449,7.625,0,0,0,0,0
5.45,7.1875,0,0,0,0,0
5.451,7.1875,0,0,0,0,0
5.452,7.125,0,0,0,0,0
5.453,6.375,0,0,0,0,0
5.454,7.625,0,0,0,0,0
5.455,8.25,0,0,0,0,0
5.456,8.5,0,0,0,0,0
5.457,8.125,0,0,0,0,0
5.458,7.9375,0,0,0,0,0
5.459,8.25,0,0,0,0,0
