0,-4.375,0,0,0,0,0
0.001,-4.375,0,0,0,0,0
0.002,-4.375,0,0,0,0,0
0.003,-4.375,0,0,0,0,0
0.004,-4.375,0,0,0,0,0
0.005,-4.375,0,0,0,0,0
0.006,-4.6875,0,0,0,0,0
0.007,-5,0,0,0,0,0
0.008,-5.3125,0,0,0,0,0
0.009,-5.625,0,0,0,0,0
0.01,-5.3125,0,0,0,0,0
0.011,-5,0,0,0,0,0
0.012,-5,0,0,0,0,0
0.013,-5,0,0,0,0,0
0.014,-5,0,0,0,0,0
0.015,-5,0,0,0,0,0
0.016,-5,0,0,0,0,0
0.017,-5,0,0,0,0,0
0.018,-5.3125,0,0,0,0,0
0.019,-5.625,0,0,0,0,0
0.02,-5.625,0,0,0,0,0
0.021,-5.625,0,0,0,0,0
0.022,-5.625,0,0,0,0,0
0.023,-5.625,0,0,0,0,0
0.024,-5.625,0,0,0,0,0
0.025,-5.625,0,0,0,0,0
0.026,-5.9375,0,0,0,0,0
0.027,-6.25,0,0,0,0,0
0.028,-6.5625,0,0,0,0,0
0.029,-6.875,0,0,0,0,0
0.03,-7.1875,0,0,0,0,0
0.031,-7.5,0,0,0,0,0
0.032,-7.8125,0,0,0,0,0
0.033,-8.125,0,0,0,0,0
0.034,-8.4375,0,0,0,0,0
0.035,-8.75,0,0,0,0,0
0.036,-8.4375,0,0,0,0,0
0.037,-8.125,0,0,0,0,0
0.038,-7.5,0,0,0,0,0
0.039,-6.875,0,0,0,0,0
0.04,-6.5625,0,0,0,0,0
0.041,-6.25,0,0,0,0,0
0.042,-6.5625,0,0,0,0,0
0.043,-6.875,0,0,0,0,0
0.044,-7.1875,0,0,0,0,0
0.045,-7.5,0,0,0,0,0
0.046,-7.1875,0,0,0,0,0
0.047,-6.875,0,0,0,0,0
0.048,-7.1875,0,0,0,0,0
0.049,-7.5,0,0,0,0,0
0.05,-7.1875,0,0,0,0,0
0.051,-6.875,0,0,0,0,0
0.052,-6.875,0,0,0,0,0
0.053,-6.875,0,0,0,0,0
0.054,-6.875,0,0,0,0,0
0.055,-6.875,0,0,0,0,0
0.056,-6.875,0,0,0,0,0
0.057,-6.875,0,0,0,0,0
0.058,-5.9375,0,0,0,0,0
0.059,-5,0,0,0,0,0
0.06,-5.3125,0,0,0,0,0
0.061,-5.625,0,0,0,0,0
0.062,-5.9375,0,0,0,0,0
0.063,-6.25,0,0,0,0,0
0.064,-6.25,0,0,0,0,0
0.065,-6.25,0,0,0,0,0
0.066,-5.9375,0,0,0,0,0
0.067,-5.625,0,0,0,0,0
0.068,-5.625,0,0,0,0,0
0.069,-5.625,0,0,0,0,0
0.07,-5.9375,0,0,0,0,0
0.071,-6.25,0,0,0,0,0
0.072,-6.25,0,0,0,0,0
0.073,-6.25,0,0,0,0,0
0.074,-6.5625,0,0,0,0,0
0.075,-6.875,0,0,0,0,0
0.076,-6.875,0,0,0,0,0
0.077,-6.875,0,0,0,0,0
0.078,-6.5625,0,0,0,0,0
0.079,-6.25,0,0,0,0,0
0.08,-6.25,0,0,0,0,0
0.081,-6.25,0,0,0,0,0
0.082,-6.25,0,0,0,0,0
0.083,-6.25,0,0,0,0,0
0.084,-6.5625,0,0,0,0,0
0.085,-6.875,0,0,0,0,0
0.086,-6.875,0,0,0,0,0
0.087,-6.875,0,0,0,0,0
0.088,-6.875,0,0,0,0,0
0.089,-6.875,0,0,0,0,0
0.09,-6.25,0,0,0,0,0
0.091,-5.625,0,0,0,0,0
0.092,-5.3125,0,0,0,0,0
0.093,-5,0,0,0,0,0
0.094,-5,0,0,0,0,0
0.095,-5,0,0,0,0,0
0.096,-5.3125,0,0,0,0,0
0.097,-5.625,0,0,0,0,0
0.098,-5,0,0,0,0,0
0.099,-4.375,0,0,0,0,0
0.1,-4.375,0,0,0,0,0
0.101,-4.375,0,0,0,0,0
0.102,-4.0625,0,0,0,0,0
0.103,-3.75,0,0,0,0,0
0.104,-4.375,0,0,0,0,0
0.105,-5,0,0,0,0,0
0.106,-5,0,0,0,0,0
0.107,-5,0,0,0,0,0
0.108,-5,0,0,0,0,0
0.109,-5,0,0,0,0,0
0.11,-5,0,0,0,0,0
0.111,-5,0,0,0,0,0
0.112,-5.3125,0,0,0,0,0
0.113,-5.625,0,0,0,0,0
0.114,-5.3125,0,0,0,0,0
0.115,-5,0,0,0,0,0
0.116,-5.3125,0,0,0,0,0
0.117,-5.625,0,0,0,0,0
0.118,-5.9375,0,0,0,0,0
0.119,-6.25,0,0,0,0,0
0.12,-5.9375,0,0,0,0,0
0.121,-5.625,0,0,0,0,0
0.122,-5.3125,0,0,0,0,0
0.123,-5,0,0,0,0,0
0.124,-4.6875,0,0,0,0,0
0.125,-4.375,0,0,0,0,0
0.126,-4.375,0,0,0,0,0
0.127,-4.375,0,0,0,0,0
0.128,-4.375,0,0,0,0,0
0.129,-4.375,0,0,0,0,0
0.13,-4.6875,0,0,0,0,0
0.131,-5,0,0,0,0,0
0.132,-4.6875,0,0,0,0,0
0.133,-4.375,0,0,0,0,0
0.134,-4.375,0,0,0,0,0
0.135,-4.375,0,0,0,0,0
0.136,-4.375,0,0,0,0,0
0.137,-4.375,0,0,0,0,0
0.138,-4.0625,0,0,0,0,0
0.139,-3.75,0,0,0,0,0
0.14,-4.375,0,0,0,0,0
0.141,-5,0,0,0,0,0
0.142,-5,0,0,0,0,0
0.143,-5,0,0,0,0,0
0.144,-5.3125,0,0,0,0,0
0.145,-5.625,0,0,0,0,0
0.146,-5.3125,0,0,0,0,0
0.147,-5,0,0,0,0,0
0.148,-4.6875,0,0,0,0,0
0.149,-4.375,0,0,0,0,0
0.15,-4.375,0,0,0,0,0
0.151,-4.375,0,0,0,0,0
0.152,-4.6875,0,0,0,0,0
0.153,-5,0,0,0,0,0
0.154,-5,0,0,0,0,0
0.155,-5,0,0,0,0,0
0.156,-5,0,0,0,0,0
0.157,-5,0,0,0,0,0
0.158,-5.3125,0,0,0,0,0
0.159,-5.625,0,0,0,0,0
0.16,-5.625,0,0,0,0,0
0.161,-5.625,0,0,0,0,0
0.162,-5.3125,0,0,0,0,0
0.163,-5,0,0,0,0,0
0.164,-5.3125,0,0,0,0,0
0.165,-5.625,0,0,0,0,0
0.166,-5.3125,0,0,0,0,0
0.167,-5,0,0,0,0,0
0.168,-5.3125,0,0,0,0,0
0.169,-5.625,0,0,0,0,0
0.17,-5.9375,0,0,0,0,0
0.171,-6.25,0,0,0,0,0
0.172,-6.5625,0,0,0,0,0
0.173,-6.875,0,0,0,0,0
0.174,-6.875,0,0,0,0,0
0.175,-6.875,0,0,0,0,0
0.176,-6.875,0,0,0,0,0
0.177,-6.875,0,0,0,0,0
0.178,-5.9375,0,0,0,0,0
0.179,-5,0,0,0,0,0
0.18,-4.375,0,0,0,0,0
0.181,-3.75,0,0,0,0,0
0.182,-4.0625,0,0,0,0,0
0.183,-4.375,0,0,0,0,0
0.184,-4.6875,0,0,0,0,0
0.185,-5,0,0,0,0,0
0.186,-5.3125,0,0,0,0,0
0.187,-5.625,0,0,0,0,0
0.188,-5.9375,0,0,0,0,0
0.189,-6.25,0,0,0,0,0
0.19,-5.9375,0,0,0,0,0
0.191,-5.625,0,0,0,0,0
0.192,-5.625,0,0,0,0,0
0.193,-5.625,0,0,0,0,0
0.194,-5.625,0,0,0,0,0
0.195,-5.625,0,0,0,0,0
0.196,-5.625,0,0,0,0,0
0.197,-5.625,0,0,0,0,0
0.198,-5,0,0,0,0,0
0.199,-4.375,0,0,0,0,0
0.2,-4.0625,0,0,0,0,0
0.201,-3.75,0,0,0,0,0
0.202,-4.0625,0,0,0,0,0
0.203,-4.375,0,0,0,0,0
0.204,-4.0625,0,0,0,0,0
0.205,-3.75,0,0,0,0,0
0.206,-3.4375,0,0,0,0,0
0.207,-3.125,0,0,0,0,0
0.208,-3.125,0,0,0,0,0
0.209,-3.125,0,0,0,0,0
0.21,-2.5,0,0,0,0,0
0.211,-1.875,0,0,0,0,0
0.212,-1.5625,0,0,0,0,0
0.213,-1.25,0,0,0,0,0
0.214,-1.25,0,0,0,0,0
0.215,-1.25,0,0,0,0,0
0.216,-0.9375,0,0,0,0,0
0.217,-0.625,0,0,0,0,0
0.218,-0.625,0,0,0,0,0
0.219,-0.625,0,0,0,0,0
0.22,-0.3125,0,0,0,0,0
0.221,0,0,0,0,0,0
0.222,0,0,0,0,0,0
0.223,0,0,0,0,0,0
0.224,0,0,0,0,0,0
0.225,0,0,0,0,0,0
0.226,-0.3125,0,0,0,0,0
0.227,-0.625,0,0,0,1,0
0.228,-0.3125,0,0,0,0,0
0.229,0,0,0,0,0,0
0.23,0,0,0,0,0,0
0.231,0,0,0,0,0,0
0.232,0,0,0,0,0,0
0.233,0,0,0,0,0,0
0.234,0.3125,0,0,0,0,0
0.235,0.625,0,0,0,0,0
0.236,0.3125,0,0,0,0,0
0.237,0,0,0,0,0,0
0.238,0,0,0,0,0,0
0.239,0,0,0,0,0,0
0.24,-0.3125,0,0,0,0,0
0.241,-0.625,0,0,0,0,0
0.242,-0.625,0,0,0,0,0
0.243,-0.625,0,0,0,0,0
0.244,-0.625,0,0,0,0,0
0.245,-0.625,0,0,0,0,0
0.246,-0.3125,0,0,0,0,0
0.247,0,0,0,0,0,0
0.248,-0.3125,0,0,0,0,0
0.249,-0.625,0,0,0,0,0
0.25,-0.625,0,0,0,0,0
0.251,-0.625,0,0,0,0,0
0.252,-0.9375,0,0,0,0,0
0.253,-1.25,0,0,0,0,0
0.254,-1.5625,0,0,0,0,0
0.255,-1.875,0,0,0,0,0
0.256,-1.875,0,0,0,0,0
0.257,-1.875,0,0,0,0,0
0.258,-1.875,0,0,0,0,0
0.259,-1.875,0,0,0,0,0
0.26,-1.875,0,0,0,0,0
0.261,-1.875,0,0,0,0,0
0.262,-2.1875,0,0,0,0,0
0.263,-2.5,0,0,0,0,0
0.264,-1.875,0,0,0,0,0
0.265,-1.25,0,0,0,0,0
0.266,-0.9375,0,0,0,0,0
0.267,-0.625,0,0,0,0,0
0.268,-0.625,0,0,0,0,0
0.269,-0.625,0,0,0,0,0
0.27,-0.625,0,0,0,0,0
0.271,-0.625,0,0,0,0,0
0.272,-0.3125,0,0,0,0,0
0.273,0,0,0,0,0,0
0.274,-0.3125,0,0,0,0,0
0.275,-0.625,0,0,0,0,0
0.276,-1.25,0,0,0,0,0
0.277,-1.875,0,0,0,0,0
0.278,-1.875,0,0,0,0,0
0.279,-1.875,0,0,0,0,0
0.28,-1.25,0,0,0,0,0
0.281,-0.625,0,0,0,0,0
0.282,-0.625,0,0,0,0,0
0.283,-0.625,0,0,0,0,0
0.284,-0.3125,0,0,0,0,0
0.285,0,0,0,0,0,0
0.286,-0.3125,0,0,0,0,0
0.287,-0.625,0,0,0,0,0
0.288,-0.625,0,0,0,0,0
0.289,-0.625,0,0,0,0,0
0.29,-0.9375,0,0,0,0,0
0.291,-1.25,0,0,0,0,0
0.292,-0.9375,0,0,0,0,0
0.293,-0.625,0,0,0,0,0
0.294,-1.25,0,0,0,0,0
0.295,-1.875,0,0,0,0,0
0.296,-1.875,0,0,0,0,0
0.297,-1.875,0,0,0,0,0
0.298,-1.5625,0,0,0,0,0
0.299,-1.25,0,0,0,0,0
0.3,-1.25,0,0,0,0,0
0.301,-1.25,0,0,0,0,0
0.302,-1.25,0,0,0,0,0
0.303,-1.25,0,0,0,0,0
0.304,-1.25,0,0,0,0,0
0.305,-1.25,0,0,0,0,0
0.306,-1.25,0,0,0,0,0
0.307,-1.25,0,0,0,0,0
0.308,-1.25,0,0,0,0,0
0.309,-1.25,0,0,0,0,0
0.31,-1.5625,0,0,0,0,0
0.311,-1.875,0,0,0,0,0
0.312,-2.1875,0,0,0,0,0
0.313,-2.5,0,0,0,0,0
0.314,-2.1875,0,0,0,0,0
0.315,-1.875,0,0,0,0,0
0.316,-1.875,0,0,0,0,0
0.317,-1.875,0,0,0,0,0
0.318,-1.5625,0,0,0,0,0
0.319,-1.25,0,0,0,0,0
0.32,-1.25,0,0,0,0,0
0.321,-1.25,0,0,0,0,0
0.322,-1.875,0,0,0,0,0
0.323,-2.5,0,0,0,0,0
0.324,-2.5,0,0,0,0,0
0.325,-2.5,0,0,0,0,0
0.326,-2.1875,0,0,0,0,0
0.327,-1.875,0,0,0,0,0
0.328,-1.875,0,0,0,0,0
0.329,-1.875,0,0,0,0,0
0.33,-1.5625,0,0,0,0,0
0.331,-1.25,0,0,0,0,0
0.332,-1.25,0,0,0,0,0
0.333,-1.25,0,0,0,0,0
0.334,-1.5625,0,0,0,0,0
0.335,-1.875,0,0,0,0,0
0.336,-1.5625,0,0,0,0,0
0.337,-1.25,0,0,0,0,0
0.338,-0.9375,0,0,0,0,0
0.339,-0.625,0,0,0,0,0
0.34,-0.625,0,0,0,0,0
0.341,-0.625,0,0,0,0,0
0.342,-0.9375,0,0,0,0,0
0.343,-1.25,0,0,0,0,0
0.344,-1.25,0,0,0,0,0
0.345,-1.25,0,0,0,0,0
0.346,-0.9375,0,0,0,0,0
0.347,-0.625,0,0,0,0,0
0.348,-0.9375,0,0,0,0,0
0.349,-1.25,0,0,0,0,0
0.35,-1.5625,0,0,0,0,0
0.351,-1.875,0,0,0,0,0
0.352,-1.875,0,0,0,0,0
0.353,-1.875,0,0,0,0,0
0.354,-1.875,0,0,0,0,0
0.355,-1.875,0,0,0,0,0
0.356,-1.875,0,0,0,0,0
0.357,-1.875,0,0,0,0,0
0.358,-2.1875,0,0,0,0,0
0.359,-2.5,0,0,0,0,0
0.36,-2.1875,0,0,0,0,0
0.361,-1.875,0,0,0,0,0
0.362,-1.5625,0,0,0,0,0
0.363,-1.25,0,0,0,0,0
0.364,-1.5625,0,0,0,0,0
0.365,-1.875,0,0,0,0,0
0.366,-1.5625,0,0,0,0,0
0.367,-1.25,0,0,0,0,0
0.368,-1.25,0,0,0,0,0
0.369,-1.25,0,0,0,0,0
0.37,-1.5625,0,0,0,0,0
0.371,-1.875,0,0,0,0,0
0.372,-1.875,0,0,0,0,0
0.373,-1.875,0,0,0,0,0
0.374,-1.5625,0,0,0,0,0
0.375,-1.25,0,0,0,0,0
0.376,-1.5625,0,0,0,0,0
0.377,-1.875,0,0,0,0,0
0.378,-2.1875,0,0,0,0,0
0.379,-2.5,0,0,0,0,0
0.38,-2.8125,0,0,0,0,1
0.381,-3.125,0,0,0,0,0
0.382,-2.8125,0,0,0,0,0
0.383,-2.5,0,0,0,0,0
0.384,-2.5,0,0,0,0,0
0.385,-2.5,0,0,0,0,0
0.386,-2.1875,0,0,0,0,0
0.387,-1.875,0,0,0,0,0
0.388,-2.1875,0,0,0,0,0
0.389,-2.5,0,0,0,0,0
0.39,-1.875,0,0,0,0,0
0.391,-1.875,0,0,0,0,0
0.392,-2.1875,0,0,0,0,0
0.393,-1.875,0,0,0,0,0
0.394,-1.875,0,0,0,0,0
0.395,-1.875,0,0,0,0,0
0.396,-2.8125,0,0,0,0,0
0.397,-3.125,0,0,0,0,0
0.398,-2.5,0,0,0,0,0
0.399,-2.5,0,0,0,0,0
0.4,-2.8125,0,0,0,0,0
0.401,-2.5,0,0,0,0,0
0.402,-2.5,0,0,0,0,0
0.403,-2.5,0,0,0,0,0
0.404,-2.1875,0,0,0,0,0
0.405,-1.875,0,0,0,0,0
0.406,-1.875,0,0,0,0,0
0.407,-1.875,0,0,0,0,0
0.408,-2.1875,0,0,0,0,0
0.409,-2.5,0,0,0,0,0
0.41,-2.5,0,0,0,0,0
0.411,-2.5,0,0,0,0,0
0.412,-2.1875,0,0,0,0,0
0.413,-2.5,0,0,0,0,0
0.414,-2.1875,0,0,0,0,0
0.415,-3.125,0,0,0,0,0
0.416,-2.1875,0,0,0,0,0
0.417,-2.5,0,0,0,0,0
0.418,-2.1875,0,0,0,0,0
0.419,-2.5,0,0,0,0,0
0.42,-2.5,0,0,0,0,0
0.421,-3.125,0,0,0,0,0
0.422,-2.8125,0,0,0,0,0
0.423,-3.125,0,0,0,0,0
0.424,-3.125,0,0,0,0,0
0.425,-3.125,0,0,0,0,0
0.426,-3.125,0,0,0,0,0
0.427,-3.125,0,0,0,0,0
0.428,-3.75,0,0,0,0,0
0.429,-3.125,0,0,0,0,0
0.43,-3.4375,0,0,0,0,0
0.431,-3.75,0,0,0,0,0
0.432,-3.125,0,0,0,0,0
0.433,-2.5,0,0,0,0,0
0.434,-2.8125,0,0,0,0,0
0.435,-3.125,0,0,0,0,0
0.436,-3.125,0,0,0,0,0
0.437,-3.125,0,0,0,0,0
0.438,-2.8125,0,0,0,0,0
0.439,-2.5,0,0,0,0,0
0.44,-2.5,0,0,0,0,0
0.441,-2.5,0,0,0,0,0
0.442,-2.5,0,0,0,0,0
0.443,-2.5,0,0,0,0,0
0.444,-3.125,0,0,0,0,0
0.445,-3.125,0,0,0,0,0
0.446,-2.1875,0,0,0,0,0
0.447,-2.5,0,0,0,0,0
0.448,-1.5625,0,0,0,0,0
0.449,-1.875,0,0,0,0,0
0.45,-1.875,0,0,0,0,0
0.451,-2.5,0,0,0,0,0
0.452,-2.1875,0,0,0,0,0
0.453,-1.875,0,0,0,0,0
0.454,-1.5625,0,0,0,0,0
0.455,-1.875,0,0,0,0,0
0.456,-1.5625,0,0,0,0,0
0.457,-1.25,0,0,0,0,0
0.458,-1.25,0,0,0,0,0
0.459,-1.875,0,0,0,0,0
0.46,-1.25,0,0,0,0,0
0.461,-1.25,0,0,0,0,0
0.462,-1.5625,0,0,0,0,0
0.463,-1.875,0,0,0,0,0
0.464,-1.875,0,0,0,0,0
0.465,-1.875,0,0,0,0,0
0.466,-1.875,0,0,0,0,0
0.467,-1.875,0,0,0,0,0
0.468,-2.1875,0,0,0,0,0
0.469,-2.5,0,0,0,0,0
0.47,-2.5,0,0,0,0,0
0.471,-2.5,0,0,0,0,0
0.472,-2.5,0,0,0,0,0
0.473,-2.5,0,0,0,0,0
0.474,-1.5625,0,0,0,0,0
0.475,-1.875,0,0,0,0,0
0.476,-1.875,0,0,0,0,0
0.477,-1.875,0,0,0,0,0
0.478,-2.5,0,0,0,0,0
0.479,-2.5,0,0,0,0,0
0.48,-2.1875,0,0,0,0,0
0.481,-1.875,0,0,0,0,0
0.482,-2.1875,0,0,0,0,0
0.483,-1.875,0,0,0,0,0
0.484,-2.1875,0,0,0,0,0
0.485,-2.5,0,0,0,0,0
0.486,-2.1875,0,0,0,0,0
0.487,-1.875,0,0,0,0,0
0.488,-2.1875,0,0,0,0,0
0.489,-1.875,0,0,0,0,0
0.49,-2.5,0,0,0,0,0
0.491,-2.5,0,0,0,0,0
0.492,-1.875,0,0,0,0,0
0.493,-1.25,0,0,0,0,0
0.494,-1.875,0,0,0,0,0
0.495,-1.875,0,0,0,0,0
0.496,-2.5,0,0,0,0,0
0.497,-2.5,0,0,0,0,0
0.498,-2.5,0,0,0,0,0
0.499,-2.5,0,0,0,0,0
0.5,-2.5,0,0,0,0,0
0.501,-2.5,0,0,0,0,0
0.502,-3.4375,0,0,0,0,0
0.503,-3.125,0,0,0,0,0
0.504,-3.4375,0,0,0,0,0
0.505,-3.75,0,0,0,0,0
0.506,-2.5,0,0,0,0,0
0.507,-1.875,0,0,0,0,0
0.508,-1.875,0,0,0,0,0
0.509,-2.5,0,0,0,0,0
0.51,-2.8125,0,0,0,0,0
0.511,-2.5,0,0,0,0,0
0.512,-2.5,0,0,0,0,0
0.513,-2.5,0,0,0,0,0
0.514,-2.8125,0,0,0,0,0
0.515,-2.5,0,0,0,0,0
0.516,-2.5,0,0,0,0,0
0.517,-2.5,0,0,0,0,0
0.518,-2.5,0,0,0,0,0
0.519,-2.5,0,0,0,0,0
0.52,-2.5,0,0,0,0,0
0.521,-2.5,0,0,0,0,0
0.522,-2.8125,0,0,0,0,0
0.523,-3.125,0,0,0,0,0
0.524,-3.125,0,0,0,0,0
0.525,-3.125,0,0,0,0,0
0.526,-2.5,0,0,0,0,0
0.527,-1.875,0,0,0,0,0
0.528,-1.5625,0,0,0,0,0
0.529,-1.25,0,0,0,0,0
0.53,-1.25,0,0,0,0,0
0.531,-1.875,0,0,0,0,0
0.532,-1.875,0,0,0,0,0
0.533,-2.5,0,0,0,0,0
0.534,-2.1875,0,0,0,0,0
0.535,-1.875,0,0,0,0,0
0.536,-2.8125,0,0,0,0,0
0.537,-2.5,0,0,0,0,0
0.538,-2.5,0,0,0,0,0
0.539,-1.875,0,0,0,0,0
0.54,-1.5625,0,0,0,0,0
0.541,-1.25,0,0,0,0,0
0.542,-1.875,0,0,0,0,0
0.543,-1.875,0,0,0,0,0
0.544,-1.5625,0,0,0,0,0
0.545,-1.875,0,0,0,0,0
0.546,-1.5625,0,0,0,0,0
0.547,-1.25,0,0,0,0,0
0.548,-0.9375,0,0,0,0,0
0.549,-1.25,0,0,0,0,0
0.55,-0.9375,0,0,0,0,0
0.551,-1.875,0,0,0,0,0
0.552,-1.875,0,0,0,0,0
0.553,-1.25,0,0,0,0,0
0.554,-1.875,0,0,0,0,0
0.555,-1.875,0,0,0,0,0
0.556,-1.875,0,0,0,0,0
0.557,-1.875,0,0,0,0,0
0.558,-1.5625,0,0,0,0,0
0.559,-1.25,0,0,0,0,0
0.56,-2.1875,0,0,0,0,0
0.561,-1.875,0,0,0,0,0
0.562,-2.1875,0,0,0,0,0
0.563,-2.5,0,0,0,0,0
0.564,-3.4375,0,0,0,0,0
0.565,-3.75,0,0,0,0,0
0.566,-2.8125,0,0,0,0,0
0.567,-3.125,0,0,0,0,0
0.568,-3.125,0,0,0,0,0
0.569,-3.125,0,0,0,0,0
0.57,-3.4375,0,0,0,0,0
0.571,-3.75,0,0,0,0,0
0.572,-3.4375,0,0,0,0,0
0.573,-3.125,0,0,0,0,0
0.574,-3.125,0,0,0,0,0
0.575,-3.125,0,0,0,0,0
0.576,-3.125,0,0,0,0,0
0.577,-3.125,0,0,0,0,0
0.578,-2.5,0,0,0,0,0
0.579,-2.5,0,0,0,0,0
0.58,-2.5,0,0,0,0,0
0.581,-2.5,0,0,0,0,0
0.582,-2.8125,0,0,0,0,0
0.583,-3.125,0,0,0,0,0
0.584,-2.8125,0,0,0,0,0
0.585,-2.5,0,0,0,0,0
0.586,-2.1875,0,0,0,0,0
0.587,-1.875,0,0,0,0,0
0.588,-1.875,0,0,0,0,0
0.589,-1.875,0,0,0,0,0
0.59,-1.5625,0,0,0,0,0
0.591,-1.875,0,0,0,0,0
0.592,-1.5625,0,0,0,0,0
0.593,-1.875,0,0,0,0,0
0.594,-1.5625,0,0,0,0,0
0.595,-1.875,0,0,0,0,0
0.596,-1.5625,0,0,0,0,0
0.597,-1.875,0,0,0,0,0
0.598,-2.5,0,0,0,0,0
0.599,-2.5,0,0,0,0,0
0.6,-2.5,0,0,0,0,0
0.601,-2.5,0,0,0,0,0
0.602,-2.5,0,0,0,0,0
0.603,-2.5,0,0,0,0,0
0.604,-2.1875,0,0,0,0,0
0.605,-2.5,0,0,0,0,0
0.606,-2.1875,0,0,0,0,0
0.607,-1.875,0,0,0,0,0
0.608,-2.5,0,0,0,0,0
0.609,-1.875,0,0,0,0,0
0.61,-2.5,0,0,0,0,0
0.611,-2.5,0,0,0,0,0
0.612,-2.1875,0,0,0,0,0
0.613,-1.875,0,0,0,0,0
0.614,-2.1875,0,0,0,0,0
0.615,-2.5,0,0,0,0,0
0.616,-2.5,0,0,0,0,0
0.617,-2.5,0,0,0,0,0
0.618,-2.5,0,0,0,0,0
0.619,-2.5,0,0,0,0,0
0.62,-2.1875,0,0,0,0,0
0.621,-1.875,0,0,0,0,0
0.622,-2.1875,0,0,0,0,0
0.623,-2.5,0,0,0,0,0
0.624,-2.5,0,0,0,0,0
0.625,-2.5,0,0,0,0,0
0.626,-2.1875,0,0,0,0,0
0.627,-1.875,0,0,0,0,0
0.628,-1.875,0,0,0,0,0
0.629,-2.5,0,0,0,0,0
0.63,-1.875,0,0,0,0,0
0.631,-1.875,0,0,0,0,0
0.632,-2.1875,0,0,0,0,0
0.633,-2.5,0,0,0,0,0
0.634,-2.1875,0,0,0,0,0
0.635,-2.5,0,0,0,0,0
0.636,-2.5,0,0,0,0,0
0.637,-2.5,0,0,0,0,0
0.638,-2.5,0,0,0,0,0
0.639,-2.5,0,0,0,0,0
0.64,-2.5,0,0,0,0,0
0.641,-3.125,0,0,0,0,0
0.642,-2.1875,0,0,0,0,0
0.643,-1.875,0,0,0,0,0
0.644,-2.1875,0,0,0,0,0
0.645,-2.5,0,0,0,0,0
0.646,-2.8125,0,0,0,0,0
0.647,-2.5,0,0,0,0,0
0.648,-1.875,0,0,0,0,0
0.649,-2.5,0,0,0,0,0
0.65,-3.125,0,0,0,0,0
0.651,-3.125,0,0,0,0,0
0.652,-1.875,0,0,0,0,0
0.653,-1.25,0,0,0,0,0
0.654,-1.25,0,0,0,0,0
0.655,-1.25,0,0,0,0,0
0.656,-1.25,0,0,0,0,0
0.657,-1.25,0,0,0,0,0
0.658,-0.9375,0,0,0,0,0
0.659,-0.625,0,0,0,0,0
0.66,-0.625,0,0,0,0,0
0.661,-0.625,0,0,0,0,0
0.662,-0.625,0,0,0,0,0
0.663,-0.625,0,0,0,0,0
0.664,-0.625,0,0,0,0,0
0.665,0,0,0,0,0,0
0.666,0,0,0,0,0,0
0.667,0,0,0,0,0,0
0.668,0.3125,0,0,0,0,0
0.669,0.625,0,0,0,0,0
0.67,0,0,0,0,0,0
0.671,-0.625,0,0,0,0,0
0.672,0,0,0,0,0,0
0.673,0,0,0,0,0,0
0.674,0.3125,0,0,0,0,0
0.675,0.625,0,0,0,0,0
0.676,-0.3125,0,0,0,0,0
0.677,-0.625,0,0,0,0,0
0.678,0,0,0,0,0,0
0.679,0,0,0,0,0,0
0.68,0.3125,0,0,0,0,0
0.681,0.625,0,0,0,0,0
0.682,0.3125,0,0,0,0,0
0.683,0,0,0,0,0,0
0.684,0.3125,0,0,0,0,0
0.685,0.625,0,0,0,0,0
0.686,0.625,0,0,0,0,0
0.687,0.625,0,0,0,0,0
0.688,0.3125,0,0,0,0,0
0.689,0.625,0,0,0,0,0
0.69,0.625,0,0,0,0,0
0.691,0.625,0,0,0,0,0
0.692,0.625,0,0,0,0,0
0.693,0.625,0,0,0,0,0
0.694,0.9375,0,0,0,0,0
0.695,1.25,0,0,0,0,0
0.696,0,0,0,0,0,0
0.697,-0.625,0,0,0,0,0
0.698,-0.3125,0,0,0,0,0
0.699,-0.625,0,0,0,0,0
0.7,-0.625,0,0,0,0,0
0.701,-0.625,0,0,0,0,0
0.702,0,0,0,0,0,0
0.703,0,0,0,0,0,0
0.704,0.3125,0,0,0,0,0
0.705,0.625,0,0,0,0,0
0.706,0.9375,0,0,0,0,0
0.707,1.25,0,0,0,0,0
0.708,1.875,0,0,0,0,0
0.709,1.25,0,0,0,0,0
0.71,1.5625,0,0,0,0,0
0.711,1.875,0,0,0,0,0
0.712,2.1875,0,0,0,0,0
0.713,2.5,0,0,0,0,0
0.714,1.875,0,0,0,0,0
0.715,1.875,0,0,0,0,0
0.716,0.625,0,0,0,0,0
0.717,0.625,0,0,0,0,0
0.718,0.9375,0,0,0,0,0
0.719,0.625,0,0,0,0,0
0.72,0.3125,0,0,0,0,0
0.721,0.625,0,0,0,0,0
0.722,0.9375,0,0,0,0,0
0.723,0.625,0,0,0,0,0
0.724,0.625,0,0,0,0,0
0.725,0.625,0,0,0,0,0
0.726,0.9375,0,0,0,0,0
0.727,0.625,0,0,0,0,0
0.728,0.625,0,0,0,0,0
0.729,0.625,0,0,0,0,0
0.73,-0.625,0,0,0,0,0
0.731,-1.25,0,0,0,0,0
0.732,-1.5625,0,0,0,0,0
0.733,-1.875,0,0,0,0,0
0.734,-1.5625,0,0,0,0,0
0.735,-1.875,0,0,0,0,0
0.736,-2.1875,0,0,0,0,0
0.737,-1.875,0,0,0,0,0
0.738,-1.5625,0,0,0,0,0
0.739,-1.875,0,0,0,0,0
0.74,-2.1875,0,0,0,0,0
0.741,-1.875,0,0,0,0,0
0.742,-1.875,0,0,0,0,0
0.743,-1.875,0,0,0,0,0
0.744,-1.875,0,0,0,0,0
0.745,-1.875,0,0,0,0,0
0.746,-1.875,0,0,0,0,0
0.747,-1.875,0,0,0,0,0
0.748,-1.875,0,0,0,0,0
0.749,-1.875,0,0,0,0,0
0.75,-1.5625,0,0,0,0,0
0.751,-1.875,0,0,0,0,0
0.752,-1.5625,0,0,0,0,0
0.753,-1.25,0,0,0,0,0
0.754,-0.9375,0,0,0,0,0
0.755,-0.625,0,0,0,0,0
0.756,-0.9375,0,0,0,0,0
0.757,-0.625,0,0,0,0,0
0.758,-0.9375,0,0,0,0,0
0.759,-0.625,0,0,0,0,0
0.76,-1.25,0,0,0,0,0
0.761,-0.625,0,0,0,0,0
0.762,-0.9375,0,0,0,0,0
0.763,-0.625,0,0,0,0,0
0.764,-0.625,0,0,0,0,0
0.765,-1.25,0,0,0,0,0
0.766,-1.25,0,0,0,0,0
0.767,-1.875,0,0,0,0,0
0.768,-1.875,0,0,0,0,0
0.769,-1.875,0,0,0,0,0
0.77,-2.1875,0,0,0,0,0
0.771,-1.875,0,0,0,0,0
0.772,-0.9375,0,0,0,0,0
0.773,-1.25,0,0,0,0,0
0.774,-1.25,0,0,0,0,0
0.775,-1.875,0,0,0,0,0
0.776,-2.5,0,0,0,0,0
0.777,-3.125,0,0,0,0,0
0.778,-3.125,0,0,0,0,0
0.779,-3.125,0,0,0,0,0
0.78,-2.8125,0,0,0,0,0
0.781,-2.5,0,0,0,0,0
0.782,-2.5,0,0,0,0,0
0.783,-2.5,0,0,0,0,0
0.784,-2.1875,0,0,0,0,0
0.785,-1.875,0,0,0,0,0
0.786,-1.875,0,0,0,0,0
0.787,-1.875,0,0,0,0,0
0.788,-1.875,0,0,0,0,0
0.789,-1.875,0,0,0,0,0
0.79,-2.8125,0,0,0,0,0
0.791,-2.5,0,0,0,0,0
0.792,-2.8125,0,0,0,0,0
0.793,-3.125,0,0,0,0,0
0.794,-3.125,0,0,0,0,0
0.795,-3.125,0,0,0,0,0
0.796,-3.125,0,0,0,0,0
0.797,-3.125,0,0,0,0,0
0.798,-2.8125,0,0,0,0,0
0.799,-2.5,0,0,0,0,0
0.8,-2.1875,0,0,0,0,0
0.801,-1.875,0,0,0,0,0
0.802,-1.875,0,0,0,0,0
0.803,-1.875,0,0,0,0,0
0.804,-2.1875,0,0,0,0,0
0.805,-2.5,0,0,0,0,0
0.806,-2.1875,0,0,0,0,0
0.807,-1.875,0,0,0,0,0
0.808,-1.875,0,0,0,0,0
0.809,-1.875,0,0,0,0,0
0.81,-2.5,0,0,0,0,0
0.811,-3.125,0,0,0,0,0
0.812,-2.1875,0,0,0,0,0
0.813,-1.875,0,0,0,0,0
0.814,-2.5,0,0,0,0,0
0.815,-2.5,0,0,0,0,0
0.816,-2.8125,0,0,0,0,0
0.817,-3.125,0,0,0,0,0
0.818,-2.8125,0,0,0,0,0
0.819,-2.5,0,0,0,0,0
0.82,-2.1875,0,0,0,0,0
0.821,-2.5,0,0,0,0,0
0.822,-2.5,0,0,0,0,0
0.823,-3.125,0,0,0,0,0
0.824,-3.4375,0,0,0,0,0
0.825,-3.75,0,0,0,0,0
0.826,-3.125,0,0,0,0,0
0.827,-3.125,0,0,0,0,0
0.828,-3.125,0,0,0,0,0
0.829,-3.125,0,0,0,0,0
0.83,-3.125,0,0,0,0,0
0.831,-3.125,0,0,0,0,0
0.832,-2.8125,0,0,0,0,0
0.833,-2.5,0,0,0,0,0
0.834,-2.8125,0,0,0,0,0
0.835,-3.125,0,0,0,0,0
0.836,-2.8125,1,0,0,0,0
0.837,-3.125,0,0,0,0,0
0.838,-2.1875,0,0,0,0,0
0.839,-1.875,0,0,0,0,0
0.84,-1.25,0,0,0,0,0
0.841,-0.625,0,0,0,0,0
0.842,-0.9375,0,0,0,0,0
0.843,-0.625,0,0,0,0,0
0.844,-0.3125,0,0,0,0,0
0.845,-0.625,0,0,0,0,0
0.846,0,0,0,0,0,0
0.847,0.625,0,0,0,0,0
0.848,0.9375,0,0,0,0,0
0.849,1.875,0,0,0,0,0
0.85,1.5625,0,0,0,0,0
0.851,1.875,0,0,0,0,0
0.852,2.8125,0,0,0,0,0
0.853,3.75,0,0,0,0,0
0.854,4.6875,0,0,0,0,0
0.855,5.625,0,0,0,0,0
0.856,5.625,0,0,0,0,0
0.857,6.25,0,0,0,0,0
0.858,7.8125,0,0,0,0,0
0.859,8.75,0,0,0,0,0
0.86,10.625,0,0,0,0,0
0.861,12.5,0,0,0,0,0
0.862,14.063,0,0,0,0,0
0.863,16.25,0,0,0,0,0
0.864,18.438,0,0,0,0,0
0.865,21.25,0,0,0,0,0
0.866,24.063,0,0,0,0,0
0.867,26.875,0,0,0,0,0
0.868,30,0,0,0,0,0
0.869,33.125,0,0,0,0,0
0.87,36.25,0,0,0,0,0
0.871,40.625,0,0,0,0,0
0.872,45.938,0,0,0,0,0
0.873,50.625,0,0,0,0,0
0.874,55,0,0,0,0,0
0.875,60,0,0,0,0,0
0.876,64.063,0,0,0,0,0
0.877,68.75,0,0,0,0,0
0.878,73.125,0,0,0,0,0
0.879,78.125,0,0,0,0,0
0.88,83.125,0,0,0,0,0
0.881,86.875,0,0,0,0,0
0.882,90.313,0,0,0,0,0
0.883,94.375,0,0,0,0,0
0.884,96.875,0,0,0,0,0
0.885,98.125,0,0,0,0,0
0.886,99.063,0,1,0,0,0
0.887,98.125,0,0,0,0,0
0.888,98.438,0,0,0,0,0
0.889,98.75,0,0,0,0,0
0.89,97.813,0,0,0,0,0
0.891,95.625,0,0,0,0,0
0.892,92.5,0,0,0,0,0
0.893,86.875,0,0,0,0,0
0.894,80,0,0,0,0,0
0.895,71.25,0,0,0,0,0
0.896,59.063,0,0,0,0,0
0.897,45,0,0,0,0,0
0.898,34.375,0,0,0,0,0
0.899,25,0,0,0,0,0
0.9,16.875,0,0,0,0,0
0.901,8.75,0,0,0,0,0
0.902,-1.875,0,0,0,0,0
0.903,-13.75,0,0,0,0,0
0.904,-24.688,0,0,0,0,0
0.905,-34.375,0,0,0,0,0
0.906,-40.938,0,0,0,0,0
0.907,-45,0,0,0,0,0
0.908,-46.875,0,0,0,0,0
0.909,-48.125,0,0,0,0,0
0.91,-49.688,0,0,0,0,0
0.911,-49.375,0,0,0,0,0
0.912,-47.813,0,0,0,0,0
0.913,-46.875,0,0,0,0,0
0.914,-45.938,0,0,0,0,0
0.915,-44.375,0,0,0,0,0
0.916,-41.875,0,0,0,0,0
0.917,-38.75,0,0,0,0,0
0.918,-35.938,0,0,0,0,0
0.919,-33.125,0,0,0,0,0
0.92,-30.313,0,0,0,0,0
0.921,-27.5,0,0,0,0,0
0.922,-25,0,0,0,0,0
0.923,-23.125,0,0,0,0,0
0.924,-20.938,0,0,0,0,0
0.925,-19.375,0,0,0,0,0
0.926,-17.5,0,0,0,0,0
0.927,-16.25,0,0,0,0,0
0.928,-14.688,0,0,0,0,0
0.929,-13.75,0,0,0,0,0
0.93,-13.125,0,0,0,0,0
0.931,-11.25,0,0,0,0,0
0.932,-10,0,0,0,0,0
0.933,-8.75,0,0,0,0,0
0.934,-8.75,0,0,0,0,0
0.935,-8.125,0,0,0,0,0
0.936,-8.125,0,0,0,0,0
0.937,-8.125,0,0,0,0,0
0.938,-6.875,0,0,1,0,0
0.939,-6.25,0,0,0,0,0
0.94,-5.625,0,0,0,0,0
0.941,-5.625,0,0,0,0,0
0.942,-5.3125,0,0,0,0,0
0.943,-5,0,0,0,0,0
0.944,-5.9375,0,0,0,0,0
0.945,-5.625,0,0,0,0,0
0.946,-5.625,0,0,0,0,0
0.947,-5.625,0,0,0,0,0
0.948,-5,0,0,0,0,0
0.949,-5,0,0,0,0,0
0.95,-5,0,0,0,0,0
0.951,-5,0,0,0,0,0
0.952,-4.6875,0,0,0,0,0
0.953,-4.375,0,0,0,0,0
0.954,-4.6875,0,0,0,0,0
0.955,-5,0,0,0,0,0
0.956,-5,0,0,0,0,0
0.957,-5,0,0,0,0,0
0.958,-5,0,0,0,0,0
0.959,-5,0,0,0,0,0
0.96,-4.375,0,0,0,0,0
0.961,-4.375,0,0,0,0,0
0.962,-5,0,0,0,0,0
0.963,-5,0,0,0,0,0
0.964,-5,0,0,0,0,0
0.965,-5,0,0,0,0,0
0.966,-4.375,0,0,0,0,0
0.967,-3.75,0,0,0,0,0
0.968,-3.75,0,0,0,0,0
0.969,-3.75,0,0,0,0,0
0.97,-3.4375,0,0,0,0,0
0.971,-3.75,0,0,0,0,0
0.972,-4.0625,0,0,0,0,0
0.973,-3.75,0,0,0,0,0
0.974,-3.4375,0,0,0,0,0
0.975,-3.125,0,0,0,0,0
0.976,-3.125,0,0,0,0,0
0.977,-3.125,0,0,0,0,0
0.978,-2.8125,0,0,0,0,0
0.979,-3.125,0,0,0,0,0
0.98,-2.8125,0,0,0,0,0
0.981,-2.5,0,0,0,0,0
0.982,-3.75,0,0,0,0,0
0.983,-4.375,0,0,0,0,0
0.984,-4.6875,0,0,0,0,0
0.985,-5,0,0,0,0,0
0.986,-4.375,0,0,0,0,0
0.987,-4.375,0,0,0,0,0
0.988,-4.0625,0,0,0,0,0
0.989,-3.75,0,0,0,0,0
0.99,-3.75,0,0,0,0,0
0.991,-4.375,0,0,0,0,0
0.992,-4.0625,0,0,0,0,0
0.993,-4.375,0,0,0,0,0
0.994,-3.75,0,0,0,0,0
0.995,-3.75,0,0,0,0,0
0.996,-3.75,0,0,0,0,0
0.997,-3.125,0,0,0,0,0
0.998,-3.125,0,0,0,0,0
0.999,-3.125,0,0,0,0,0
1,-3.125,0,0,0,0,0
1.001,-3.125,0,0,0,0,0
1.002,-3.125,0,0,0,0,0
1.003,-3.125,0,0,0,0,0
1.004,-3.4375,0,0,0,0,0
1.005,-2.5,0,0,0,0,0
1.006,-3.125,0,0,0,0,0
1.007,-3.125,0,0,0,0,0
1.008,-3.4375,0,0,0,0,0
1.009,-3.75,0,0,0,0,0
1.01,-3.4375,0,0,0,0,0
1.011,-3.125,0,0,0,0,0
1.012,-3.125,0,0,0,0,0
1.013,-3.125,0,0,0,0,0
1.014,-3.4375,0,0,0,0,0
1.015,-3.75,0,0,0,0,0
1.016,-3.75,0,0,0,0,0
1.017,-3.75,0,0,0,0,0
1.018,-3.75,0,0,0,0,0
1.019,-3.75,0,0,0,0,0
1.02,-3.4375,0,0,0,0,0
1.021,-3.125,0,0,0,0,0
1.022,-3.4375,0,0,0,0,0
1.023,-3.75,0,0,0,0,0
1.024,-4.0625,0,0,0,0,0
1.025,-3.75,0,0,0,0,0
1.026,-3.4375,0,0,0,0,0
1.027,-3.75,0,0,0,0,0
1.028,-4.0625,0,0,0,0,0
1.029,-4.375,0,0,0,0,0
1.03,-4.6875,0,0,0,0,0
1.031,-5,0,0,0,0,0
1.032,-4.375,0,0,0,0,0
1.033,-3.75,0,0,0,0,0
1.034,-3.75,0,0,0,0,0
1.035,-3.75,0,0,0,0,0
1.036,-4.6875,0,0,0,0,0
1.037,-4.375,0,0,0,0,0
1.038,-4.0625,0,0,0,0,0
1.039,-3.75,0,0,0,0,0
1.04,-4.0625,0,0,0,0,0
1.041,-4.375,0,0,0,0,0
1.042,-3.75,0,0,0,0,0
1.043,-3.75,0,0,0,0,0
1.044,-4.0625,0,0,0,0,0
1.045,-4.375,0,0,0,0,0
1.046,-3.75,0,0,0,0,0
1.047,-3.125,0,0,0,0,0
1.048,-2.8125,0,0,0,0,0
1.049,-3.125,0,0,0,0,0
1.05,-2.8125,0,0,0,0,0
1.051,-3.75,0,0,0,0,0
1.052,-2.8125,0,0,0,0,0
1.053,-3.125,0,0,0,0,0
1.054,-3.125,0,0,0,0,0
1.055,-3.125,0,0,0,0,0
1.056,-3.4375,0,0,0,0,0
1.057,-3.75,0,0,0,0,0
1.058,-3.4375,0,0,0,0,0
1.059,-3.125,0,0,0,0,0
1.06,-3.4375,0,0,0,0,0
1.061,-3.75,0,0,0,0,0
1.062,-3.75,0,0,0,0,0
1.063,-3.75,0,0,0,0,0
1.064,-3.75,0,0,0,0,0
1.065,-3.75,0,0,0,0,0
1.066,-3.4375,0,0,0,0,0
1.067,-3.125,0,0,0,0,0
1.068,-3.125,0,0,0,0,0
1.069,-3.125,0,0,0,0,0
1.07,-3.125,0,0,0,0,0
1.071,-3.125,0,0,0,0,0
1.072,-2.8125,0,0,0,0,0
1.073,-2.5,0,0,0,0,0
1.074,-2.8125,0,0,0,0,0
1.075,-3.125,0,0,0,0,0
1.076,-3.75,0,0,0,0,0
1.077,-4.375,0,0,0,0,0
1.078,-4.0625,0,0,0,0,0
1.079,-3.75,0,0,0,0,0
1.08,-4.0625,0,0,0,0,0
1.081,-4.375,0,0,0,0,0
1.082,-5,0,0,0,0,0
1.083,-4.375,0,0,0,0,0
1.084,-4.6875,0,0,0,0,0
1.085,-5,0,0,0,0,0
1.086,-5,0,0,0,0,0
1.087,-5,0,0,0,0,0
1.088,-4.375,0,0,0,0,0
1.089,-4.375,0,0,0,0,0
1.09,-4.375,0,0,0,0,0
1.091,-3.75,0,0,0,0,0
1.092,-3.75,0,0,0,0,0
1.093,-3.75,0,0,0,0,0
1.094,-2.8125,0,0,0,0,0
1.095,-3.125,0,0,0,0,0
1.096,-3.125,0,0,0,0,0
1.097,-3.125,0,0,0,0,0
1.098,-3.125,0,0,0,0,0
1.099,-3.125,0,0,0,0,0
1.1,-3.4375,0,0,0,0,0
1.101,-3.125,0,0,0,0,0
1.102,-3.125,0,0,0,0,0
1.103,-3.125,0,0,0,0,0
1.104,-3.125,0,0,0,0,0
1.105,-3.125,0,0,0,0,0
1.106,-3.125,0,0,0,0,0
1.107,-3.75,0,0,0,0,0
1.108,-3.75,0,0,0,0,0
1.109,-3.75,0,0,0,0,0
1.11,-3.4375,0,0,0,0,0
1.111,-3.75,0,0,0,0,0
1.112,-4.0625,0,0,0,0,0
1.113,-3.75,0,0,0,0,0
1.114,-3.4375,0,0,0,0,0
1.115,-3.125,0,0,0,0,0
1.116,-3.125,0,0,0,0,0
1.117,-3.125,0,0,0,0,0
1.118,-3.4375,0,0,0,0,0
1.119,-3.125,0,0,0,0,0
1.12,-3.125,0,0,0,0,0
1.121,-3.125,0,0,0,0,0
1.122,-3.125,0,0,0,0,0
1.123,-3.125,0,0,0,0,0
1.124,-3.125,0,0,0,0,0
1.125,-3.125,0,0,0,0,0
1.126,-3.125,0,0,0,0,0
1.127,-2.5,0,0,0,0,0
1.128,-2.5,0,0,0,0,0
1.129,-3.125,0,0,0,0,0
1.13,-3.125,0,0,0,0,0
1.131,-3.75,0,0,0,0,0
1.132,-3.4375,0,0,0,0,0
1.133,-3.125,0,0,0,0,0
1.134,-3.125,0,0,0,0,0
1.135,-3.125,0,0,0,0,0
1.136,-2.8125,0,0,0,0,0
1.137,-2.5,0,0,0,0,0
1.138,-2.1875,0,0,0,0,0
1.139,-1.875,0,0,0,0,0
1.14,-2.1875,0,0,0,0,0
1.141,-2.5,0,0,0,0,0
1.142,-2.8125,0,0,0,0,0
1.143,-3.125,0,0,0,0,0
1.144,-3.125,0,0,0,0,0
1.145,-3.125,0,0,0,0,0
1.146,-3.125,0,0,0,0,0
1.147,-3.125,0,0,0,0,0
1.148,-3.125,0,0,0,0,0
1.149,-3.125,0,0,0,0,0
1.15,-2.8125,0,0,0,0,0
1.151,-2.5,0,0,0,0,0
1.152,-2.8125,0,0,0,0,0
1.153,-3.125,0,0,0,0,0
1.154,-3.125,0,0,0,0,0
1.155,-3.125,0,0,0,0,0
1.156,-2.8125,0,0,0,0,0
1.157,-2.5,0,0,0,0,0
1.158,-2.5,0,0,0,0,0
1.159,-2.5,0,0,0,0,0
1.16,-2.5,0,0,0,0,0
1.161,-2.5,0,0,0,0,0
1.162,-3.125,0,0,0,0,0
1.163,-3.125,0,0,0,0,0
1.164,-3.4375,0,0,0,0,0
1.165,-3.75,0,0,0,0,0
1.166,-4.0625,0,0,0,0,0
1.167,-3.75,0,0,0,0,0
1.168,-4.375,0,0,0,0,0
1.169,-4.375,0,0,0,0,0
1.17,-3.75,0,0,0,0,0
1.171,-3.75,0,0,0,0,0
1.172,-3.4375,0,0,0,0,0
1.173,-3.125,0,0,0,0,0
1.174,-3.4375,0,0,0,0,0
1.175,-3.125,0,0,0,0,0
1.176,-3.75,0,0,0,0,0
1.177,-3.75,0,0,0,0,0
1.178,-3.75,0,0,0,0,0
1.179,-3.75,0,0,0,0,0
1.18,-3.125,0,0,0,0,0
1.181,-3.125,0,0,0,0,0
1.182,-4.0625,0,0,0,0,0
1.183,-3.75,0,0,0,0,0
1.184,-4.375,0,0,0,0,0
1.185,-4.375,0,0,0,0,0
1.186,-3.75,0,0,0,0,0
1.187,-4.375,0,0,0,0,0
1.188,-4.0625,0,0,0,0,0
1.189,-5,0,0,0,0,0
1.19,-4.375,0,0,0,0,0
1.191,-4.375,0,0,0,0,0
1.192,-4.375,0,0,0,0,0
1.193,-4.375,0,0,0,0,0
1.194,-5,0,0,0,0,0
1.195,-4.375,0,0,0,0,0
1.196,-5,0,0,0,0,0
1.197,-5,0,0,0,0,0
1.198,-4.0625,0,0,0,0,0
1.199,-3.75,0,0,0,0,0
1.2,-3.4375,0,0,0,0,0
1.201,-3.125,0,0,0,0,0
1.202,-3.125,0,0,0,0,0
1.203,-3.75,0,0,0,0,0
1.204,-4.0625,0,0,0,0,0
1.205,-3.75,0,0,0,0,0
1.206,-3.75,0,0,0,0,0
1.207,-3.75,0,0,0,0,0
1.208,-3.75,0,0,0,0,0
1.209,-3.75,0,0,0,0,0
1.21,-4.375,0,0,0,0,0
1.211,-4.375,0,0,0,0,0
1.212,-4.375,0,0,0,0,0
1.213,-4.375,0,0,0,0,0
1.214,-3.4375,0,0,0,0,0
1.215,-3.75,0,0,0,0,0
1.216,-4.375,0,0,0,0,0
1.217,-4.375,0,0,0,0,0
1.218,-4.0625,0,0,0,0,0
1.219,-3.75,0,0,0,0,0
1.22,-3.75,0,0,0,0,0
1.221,-4.375,0,0,0,0,0
1.222,-4.6875,0,0,0,0,0
1.223,-4.375,0,0,0,0,0
1.224,-4.0625,0,0,0,0,0
1.225,-3.75,0,0,0,0,0
1.226,-3.125,0,0,0,0,0
1.227,-3.125,0,0,0,0,0
1.228,-3.4375,0,0,0,0,0
1.229,-3.125,0,0,0,0,0
1.23,-3.125,0,0,0,0,0
1.231,-3.125,0,0,0,0,0
1.232,-2.8125,0,0,0,0,0
1.233,-2.5,0,0,0,0,0
1.234,-1.875,0,0,0,0,0
1.235,-1.25,0,0,0,0,0
1.236,-1.25,0,0,0,0,0
1.237,-1.875,0,0,0,0,0
1.238,-1.25,0,0,0,0,0
1.239,-1.25,0,0,0,0,0
1.24,-1.875,0,0,0,0,0
1.241,-1.25,0,0,0,0,0
1.242,-1.25,0,0,0,0,0
1.243,-1.25,0,0,0,0,0
1.244,-0.9375,0,0,0,0,0
1.245,-1.25,0,0,0,0,0
1.246,-1.25,0,0,0,0,0
1.247,-0.625,0,0,0,0,0
1.248,-0.9375,0,0,0,0,0
1.249,-1.25,0,0,0,0,0
1.25,-0.3125,0,0,0,0,0
1.251,0,0,0,0,0,0
1.252,0.625,0,0,0,0,0
1.253,0.625,0,0,0,0,0
1.254,1.25,0,0,0,0,0
1.255,1.875,0,0,0,0,0
1.256,1.875,0,0,0,0,0
1.257,1.875,0,0,0,0,0
1.258,1.875,0,0,0,0,0
1.259,2.5,0,0,0,0,0
1.26,1.875,0,0,0,0,0
1.261,2.5,0,0,0,0,0
1.262,1.875,0,0,0,0,0
1.263,1.875,0,0,0,0,0
1.264,1.5625,0,0,0,0,0
1.265,1.875,0,0,0,0,0
1.266,1.25,0,0,0,0,0
1.267,1.875,0,0,0,0,0
1.268,1.875,0,0,0,0,0
1.269,1.875,0,0,0,1,0
1.27,1.875,0,0,0,0,0
1.271,1.875,0,0,0,0,0
1.272,1.5625,0,0,0,0,0
1.273,1.875,0,0,0,0,0
1.274,2.5,0,0,0,0,0
1.275,2.5,0,0,0,0,0
1.276,1.875,0,0,0,0,0
1.277,2.5,0,0,0,0,0
1.278,2.5,0,0,0,0,0
1.279,2.5,0,0,0,0,0
1.28,2.5,0,0,0,0,0
1.281,3.125,0,0,0,0,0
1.282,2.8125,0,0,0,0,0
1.283,2.5,0,0,0,0,0
1.284,2.5,0,0,0,0,0
1.285,2.5,0,0,0,0,0
1.286,3.125,0,0,0,0,0
1.287,3.125,0,0,0,0,0
1.288,2.8125,0,0,0,0,0
1.289,2.5,0,0,0,0,0
1.29,1.875,0,0,0,0,0
1.291,1.875,0,0,0,0,0
1.292,1.875,0,0,0,0,0
1.293,1.875,0,0,0,0,0
1.294,1.875,0,0,0,0,0
1.295,1.875,0,0,0,0,0
1.296,2.1875,0,0,0,0,0
1.297,2.5,0,0,0,0,0
1.298,2.5,0,0,0,0,0
1.299,2.5,0,0,0,0,0
1.3,2.5,0,0,0,0,0
1.301,2.5,0,0,0,0,0
1.302,1.5625,0,0,0,0,0
1.303,1.25,0,0,0,0,0
1.304,1.5625,0,0,0,0,0
1.305,1.875,0,0,0,0,0
1.306,1.5625,0,0,0,0,0
1.307,1.25,0,0,0,0,0
1.308,1.25,0,0,0,0,0
1.309,1.25,0,0,0,0,0
1.31,0.9375,0,0,0,0,0
1.311,1.25,0,0,0,0,0
1.312,1.25,0,0,0,0,0
1.313,1.25,0,0,0,0,0
1.314,1.25,0,0,0,0,0
1.315,1.25,0,0,0,0,0
1.316,1.25,0,0,0,0,0
1.317,1.25,0,0,0,0,0
1.318,0.9375,0,0,0,0,0
1.319,1.25,0,0,0,0,0
1.32,0.9375,0,0,0,0,0
1.321,0.625,0,0,0,0,0
1.322,0.625,0,0,0,0,0
1.323,0.625,0,0,0,0,0
1.324,0,0,0,0,0,0
1.325,0.625,0,0,0,0,0
1.326,0.3125,0,0,0,0,0
1.327,1.25,0,0,0,0,0
1.328,0.625,0,0,0,0,0
1.329,0.625,0,0,0,0,0
1.33,0.625,0,0,0,0,0
1.331,0.625,0,0,0,0,0
1.332,0.625,0,0,0,0,0
1.333,0.625,0,0,0,0,0
1.334,0.9375,0,0,0,0,0
1.335,1.25,0,0,0,0,0
1.336,0.9375,0,0,0,0,0
1.337,0.625,0,0,0,0,0
1.338,0.625,0,0,0,0,0
1.339,0.625,0,0,0,0,0
1.34,0.9375,0,0,0,0,0
1.341,1.25,0,0,0,0,0
1.342,0.9375,0,0,0,0,0
1.343,1.25,0,0,0,0,0
1.344,0.625,0,0,0,0,0
1.345,0.625,0,0,0,0,0
1.346,0.9375,0,0,0,0,0
1.347,1.25,0,0,0,0,0
1.348,1.25,0,0,0,0,0
1.349,1.25,0,0,0,0,0
1.35,1.25,0,0,0,0,0
1.351,1.25,0,0,0,0,0
1.352,1.5625,0,0,0,0,0
1.353,1.875,0,0,0,0,0
1.354,1.875,0,0,0,0,0
1.355,1.875,0,0,0,0,0
1.356,0.9375,0,0,0,0,0
1.357,0.625,0,0,0,0,0
1.358,0.625,0,0,0,0,0
1.359,0.625,0,0,0,0,0
1.36,0.625,0,0,0,0,0
1.361,0.625,0,0,0,0,0
1.362,0.625,0,0,0,0,0
1.363,0.625,0,0,0,0,0
1.364,0.625,0,0,0,0,0
1.365,0.625,0,0,0,0,0
1.366,0.9375,0,0,0,0,0
1.367,1.25,0,0,0,0,0
1.368,0.9375,0,0,0,0,0
1.369,0.625,0,0,0,0,0
1.37,0.625,0,0,0,0,0
1.371,0.625,0,0,0,0,0
1.372,0,0,0,0,0,0
1.373,0,0,0,0,0,0
1.374,0.3125,0,0,0,0,0
1.375,0.625,0,0,0,0,0
1.376,0,0,0,0,0,0
1.377,0,0,0,0,0,0
1.378,0.3125,0,0,0,0,0
1.379,0.625,0,0,0,0,0
1.38,0.625,0,0,0,0,0
1.381,0.625,0,0,0,0,0
1.382,0.625,0,0,0,0,0
1.383,0.625,0,0,0,0,0
1.384,0.625,0,0,0,0,0
1.385,0.625,0,0,0,0,0
1.386,0.625,0,0,0,0,0
1.387,0.625,0,0,0,0,0
1.388,0.625,0,0,0,0,0
1.389,0.625,0,0,0,0,0
1.39,0,0,0,0,0,0
1.391,-0.625,0,0,0,0,0
1.392,0,0,0,0,0,0
1.393,0,0,0,0,0,0
1.394,0.3125,0,0,0,0,0
1.395,0,0,0,0,0,0
1.396,0,0,0,0,0,0
1.397,0,0,0,0,0,0
1.398,-0.625,0,0,0,0,0
1.399,0,0,0,0,0,0
1.4,-0.625,0,0,0,0,0
1.401,0,0,0,0,0,0
1.402,-0.3125,0,0,0,0,0
1.403,0,0,0,0,0,0
1.404,0,0,0,0,0,0
1.405,0,0,0,0,0,0
1.406,0.3125,0,0,0,0,0
1.407,0.625,0,0,0,0,0
1.408,0.625,0,0,0,0,0
1.409,0.625,0,0,0,0,0
1.41,0.3125,0,0,0,0,0
1.411,0,0,0,0,0,0
1.412,-0.3125,0,0,0,0,0
1.413,0,0,0,0,0,0
1.414,-0.3125,0,0,0,0,0
1.415,0,0,0,0,0,0
1.416,0,0,0,0,0,0
1.417,0,0,0,0,0,0
1.418,-0.3125,0,0,0,0,0
1.419,-0.625,0,0,0,0,0
1.42,0.3125,0,0,0,0,0
1.421,0,0,0,0,0,0
1.422,-0.625,0,0,0,0,0
1.423,-1.25,0,0,0,0,0
1.424,-1.25,0,0,0,0,0
1.425,-1.25,0,0,0,0,0
1.426,-0.9375,0,0,0,0,0
1.427,-1.25,0,0,0,0,0
1.428,-1.5625,0,0,0,0,0
1.429,-1.875,0,0,0,0,0
1.43,-1.5625,0,0,0,0,0
1.431,-1.25,0,0,0,0,0
1.432,-1.5625,0,0,0,0,0
1.433,-1.25,0,0,0,0,0
1.434,-1.25,0,0,0,0,0
1.435,-1.25,0,0,0,0,0
1.436,-1.25,0,0,0,0,0
1.437,-1.25,0,0,0,0,0
1.438,-1.25,0,0,0,0,0
1.439,-1.25,0,0,0,0,0
1.44,-0.9375,0,0,0,0,0
1.441,-0.625,0,0,0,0,0
1.442,-0.625,0,0,0,0,0
1.443,-0.625,0,0,0,0,0
1.444,-0.625,0,0,0,0,0
1.445,-0.625,0,0,0,0,0
1.446,-0.625,0,0,0,0,0
1.447,-1.25,0,0,0,0,0
1.448,-1.25,0,0,0,0,0
1.449,-1.25,0,0,0,0,0
1.45,-1.5625,0,0,0,0,0
1.451,-1.875,0,0,0,0,0
1.452,-1.875,0,0,0,0,0
1.453,-1.875,0,0,0,0,0
1.454,-0.9375,0,0,0,0,0
1.455,-1.25,0,0,0,0,0
1.456,-1.5625,0,0,0,0,0
1.457,-1.875,0,0,0,0,0
1.458,-2.1875,0,0,0,0,0
1.459,-3.125,0,0,0,0,0
1.46,-2.8125,0,0,0,0,0
1.461,-3.125,0,0,0,0,0
1.462,-2.5,0,0,0,0,0
1.463,-3.125,0,0,0,0,0
1.464,-2.8125,0,0,0,0,0
1.465,-3.125,0,0,0,0,0
1.466,-2.8125,0,0,0,0,0
1.467,-3.125,0,0,0,0,0
1.468,-2.5,0,0,0,0,0
1.469,-1.875,0,0,0,0,1
1.47,-3.125,0,0,0,0,0
1.471,-3.125,0,0,0,0,0
1.472,-3.125,0,0,0,0,0
1.473,-3.125,0,0,0,0,0
1.474,-3.125,0,0,0,0,0
1.475,-3.125,0,0,0,0,0
1.476,-3.125,0,0,0,0,0
1.477,-3.125,0,0,0,0,0
1.478,-2.8125,0,0,0,0,0
1.479,-2.5,0,0,0,0,0
1.48,-2.5,0,0,0,0,0
1.481,-2.5,0,0,0,0,0
1.482,-2.5,0,0,0,0,0
1.483,-2.5,0,0,0,0,0
1.484,-2.8125,0,0,0,0,0
1.485,-2.5,0,0,0,0,0
1.486,-2.5,0,0,0,0,0
1.487,-1.875,0,0,0,0,0
1.488,-1.875,0,0,0,0,0
1.489,-2.5,0,0,0,0,0
1.49,-2.5,0,0,0,0,0
1.491,-2.5,0,0,0,0,0
1.492,-2.1875,0,0,0,0,0
1.493,-1.875,0,0,0,0,0
1.494,-1.875,0,0,0,0,0
1.495,-1.25,0,0,0,0,0
1.496,-2.1875,0,0,0,0,0
1.497,-2.5,0,0,0,0,0
1.498,-2.5,0,0,0,0,0
1.499,-3.125,0,0,0,0,0
1.5,-2.8125,0,0,0,0,0
1.501,-3.125,0,0,0,0,0
1.502,-3.125,0,0,0,0,0
1.503,-3.125,0,0,0,0,0
1.504,-3.75,0,0,0,0,0
1.505,-3.75,0,0,0,0,0
1.506,-3.75,0,0,0,0,0
1.507,-3.75,0,0,0,0,0
1.508,-3.4375,0,0,0,0,0
1.509,-3.125,0,0,0,0,0
1.51,-3.125,0,0,0,0,0
1.511,-3.125,0,0,0,0,0
1.512,-2.8125,0,0,0,0,0
1.513,-3.125,0,0,0,0,0
1.514,-3.125,0,0,0,0,0
1.515,-3.125,0,0,0,0,0
1.516,-3.125,0,0,0,0,0
1.517,-3.125,0,0,0,0,0
1.518,-3.125,0,0,0,0,0
1.519,-3.125,0,0,0,0,0
1.52,-2.8125,0,0,0,0,0
1.521,-3.125,0,0,0,0,0
1.522,-2.1875,0,0,0,0,0
1.523,-2.5,0,0,0,0,0
1.524,-1.875,0,0,0,0,0
1.525,-1.875,0,0,0,0,0
1.526,-1.875,0,0,0,0,0
1.527,-1.875,0,0,0,0,0
1.528,-2.1875,0,0,0,0,0
1.529,-2.5,0,0,0,0,0
1.53,-3.125,0,0,0,0,0
1.531,-3.125,0,0,0,0,0
1.532,-3.75,0,0,0,0,0
1.533,-3.75,0,0,0,0,0
1.534,-3.125,0,0,0,0,0
1.535,-3.125,0,0,0,0,0
1.536,-2.5,0,0,0,0,0
1.537,-2.5,0,0,0,0,0
1.538,-2.5,0,0,0,0,0
1.539,-2.5,0,0,0,0,0
1.54,-2.5,0,0,0,0,0
1.541,-2.5,0,0,0,0,0
1.542,-2.5,0,0,0,0,0
1.543,-2.5,0,0,0,0,0
1.544,-2.5,0,0,0,0,0
1.545,-2.5,0,0,0,0,0
1.546,-2.5,0,0,0,0,0
1.547,-2.5,0,0,0,0,0
1.548,-3.4375,0,0,0,0,0
1.549,-3.125,0,0,0,0,0
1.55,-3.125,0,0,0,0,0
1.551,-3.125,0,0,0,0,0
1.552,-2.8125,0,0,0,0,0
1.553,-3.125,0,0,0,0,0
1.554,-3.125,0,0,0,0,0
1.555,-2.5,0,0,0,0,0
1.556,-1.875,0,0,0,0,0
1.557,-1.875,0,0,0,0,0
1.558,-2.1875,0,0,0,0,0
1.559,-1.875,0,0,0,0,0
1.56,-1.5625,0,0,0,0,0
1.561,-1.875,0,0,0,0,0
1.562,-2.1875,0,0,0,0,0
1.563,-2.5,0,0,0,0,0
1.564,-2.8125,0,0,0,0,0
1.565,-3.125,0,0,0,0,0
1.566,-3.4375,0,0,0,0,0
1.567,-3.75,0,0,0,0,0
1.568,-2.8125,0,0,0,0,0
1.569,-2.5,0,0,0,0,0
1.57,-2.8125,0,0,0,0,0
1.571,-3.125,0,0,0,0,0
1.572,-2.8125,0,0,0,0,0
1.573,-3.125,0,0,0,0,0
1.574,-3.125,0,0,0,0,0
1.575,-3.125,0,0,0,0,0
1.576,-2.8125,0,0,0,0,0
1.577,-3.125,0,0,0,0,0
1.578,-2.8125,0,0,0,0,0
1.579,-3.125,0,0,0,0,0
1.58,-2.8125,0,0,0,0,0
1.581,-2.5,0,0,0,0,0
1.582,-2.1875,0,0,0,0,0
1.583,-1.875,0,0,0,0,0
1.584,-2.1875,0,0,0,0,0
1.585,-2.5,0,0,0,0,0
1.586,-2.1875,0,0,0,0,0
1.587,-2.5,0,0,0,0,0
1.588,-2.5,0,0,0,0,0
1.589,-2.5,0,0,0,0,0
1.59,-2.5,0,0,0,0,0
1.591,-2.5,0,0,0,0,0
1.592,-2.5,0,0,0,0,0
1.593,-2.5,0,0,0,0,0
1.594,-2.1875,0,0,0,0,0
1.595,-2.5,0,0,0,0,0
1.596,-1.875,0,0,0,0,0
1.597,-1.875,0,0,0,0,0
1.598,-2.1875,0,0,0,0,0
1.599,-2.5,0,0,0,0,0
1.6,-3.125,0,0,0,0,0
1.601,-2.5,0,0,0,0,0
1.602,-3.125,0,0,0,0,0
1.603,-3.125,0,0,0,0,0
1.604,-3.125,0,0,0,0,0
1.605,-3.125,0,0,0,0,0
1.606,-3.4375,0,0,0,0,0
1.607,-3.125,0,0,0,0,0
1.608,-2.5,0,0,0,0,0
1.609,-2.5,0,0,0,0,0
1.61,-2.1875,0,0,0,0,0
1.611,-1.875,0,0,0,0,0
1.612,-1.875,0,0,0,0,0
1.613,-2.5,0,0,0,0,0
1.614,-1.875,0,0,0,0,0
1.615,-2.5,0,0,0,0,0
1.616,-2.5,0,0,0,0,0
1.617,-1.875,0,0,0,0,0
1.618,-2.5,0,0,0,0,0
1.619,-2.5,0,0,0,0,0
1.62,-2.1875,0,0,0,0,0
1.621,-1.875,0,0,0,0,0
1.622,-1.875,0,0,0,0,0
1.623,-1.875,0,0,0,0,0
1.624,-2.8125,0,0,0,0,0
1.625,-2.5,0,0,0,0,0
1.626,-2.5,0,0,0,0,0
1.627,-2.5,0,0,0,0,0
1.628,-3.4375,0,0,0,0,0
1.629,-3.75,0,0,0,0,0
1.63,-2.8125,0,0,0,0,0
1.631,-3.125,0,0,0,0,0
1.632,-3.125,0,0,0,0,0
1.633,-3.125,0,0,0,0,0
1.634,-2.8125,0,0,0,0,0
1.635,-2.5,0,0,0,0,0
1.636,-2.8125,0,0,0,0,0
1.637,-3.125,0,0,0,0,0
1.638,-3.125,0,0,0,0,0
1.639,-3.125,0,0,0,0,0
1.64,-3.125,0,0,0,0,0
1.641,-3.125,0,0,0,0,0
1.642,-2.1875,0,0,0,0,0
1.643,-1.875,0,0,0,0,0
1.644,-1.875,0,0,0,0,0
1.645,-1.875,0,0,0,0,0
1.646,-1.5625,0,0,0,0,0
1.647,-1.25,0,0,0,0,0
1.648,-1.25,0,0,0,0,0
1.649,-1.25,0,0,0,0,0
1.65,-1.5625,0,0,0,0,0
1.651,-1.875,0,0,0,0,0
1.652,-2.1875,0,0,0,0,0
1.653,-2.5,0,0,0,0,0
1.654,-1.875,0,0,0,0,0
1.655,-1.875,0,0,0,0,0
1.656,-1.5625,0,0,0,0,0
1.657,-1.875,0,0,0,0,0
1.658,-1.875,0,0,0,0,0
1.659,-2.5,0,0,0,0,0
1.66,-2.1875,0,0,0,0,0
1.661,-2.5,0,0,0,0,0
1.662,-2.8125,0,0,0,0,0
1.663,-2.5,0,0,0,0,0
1.664,-2.8125,0,0,0,0,0
1.665,-3.125,0,0,0,0,0
1.666,-3.125,0,0,0,0,0
1.667,-3.125,0,0,0,0,0
1.668,-2.5,0,0,0,0,0
1.669,-2.5,0,0,0,0,0
1.67,-1.875,0,0,0,0,0
1.671,-1.25,0,0,0,0,0
1.672,-2.1875,0,0,0,0,0
1.673,-1.875,0,0,0,0,0
1.674,-2.1875,0,0,0,0,0
1.675,-1.875,0,0,0,0,0
1.676,-2.1875,0,0,0,0,0
1.677,-2.5,0,0,0,0,0
1.678,-2.5,0,0,0,0,0
1.679,-2.5,0,0,0,0,0
1.68,-1.875,0,0,0,0,0
1.681,-1.25,0,0,0,0,0
1.682,-1.25,0,0,0,0,0
1.683,-1.25,0,0,0,0,0
1.684,-1.25,0,0,0,0,0
1.685,-1.25,0,0,0,0,0
1.686,-1.25,0,0,0,0,0
1.687,-1.25,0,0,0,0,0
1.688,-1.25,0,0,0,0,0
1.689,-1.25,0,0,0,0,0
1.69,-1.5625,0,0,0,0,0
1.691,-1.875,0,0,0,0,0
1.692,-1.875,0,0,0,0,0
1.693,-2.5,0,0,0,0,0
1.694,-2.1875,0,0,0,0,0
1.695,-2.5,0,0,0,0,0
1.696,-2.8125,0,0,0,0,0
1.697,-3.125,0,0,0,0,0
1.698,-2.5,0,0,0,0,0
1.699,-2.5,0,0,0,0,0
1.7,-2.1875,0,0,0,0,0
1.701,-1.875,0,0,0,0,0
1.702,-1.875,0,0,0,0,0
1.703,-1.875,0,0,0,0,0
1.704,-1.875,0,0,0,0,0
1.705,-2.5,0,0,0,0,0
1.706,-1.875,0,0,0,0,0
1.707,-1.875,0,0,0,0,0
1.708,-1.875,0,0,0,0,0
1.709,-1.875,0,0,0,0,0
1.71,-2.5,0,0,0,0,0
1.711,-2.5,0,0,0,0,0
1.712,-1.25,0,0,0,0,0
1.713,-1.25,0,0,0,0,0
1.714,-1.875,0,0,0,0,0
1.715,-1.875,0,0,0,0,0
1.716,-1.25,0,0,0,0,0
1.717,-1.25,0,0,0,0,0
1.718,-1.25,0,0,0,0,0
1.719,-1.25,0,0,0,0,0
1.72,-0.9375,0,0,0,0,0
1.721,-0.625,0,0,0,0,0
1.722,-0.625,0,0,0,0,0
1.723,-0.625,0,0,0,0,0
1.724,-0.625,0,0,0,0,0
1.725,-0.625,0,0,0,0,0
1.726,-0.625,0,0,0,0,0
1.727,-0.625,0,0,0,0,0
1.728,-0.3125,0,0,0,0,0
1.729,0.625,0,0,0,0,0
1.73,0.625,0,0,0,0,0
1.731,0.625,0,0,0,0,0
1.732,0.9375,0,0,0,0,0
1.733,1.25,0,0,0,0,0
1.734,0.9375,0,0,0,0,0
1.735,0.625,0,0,0,0,0
1.736,0.9375,0,0,0,0,0
1.737,0.625,0,0,0,0,0
1.738,0.625,0,0,0,0,0
1.739,0.625,0,0,0,0,0
1.74,0,0,0,0,0,0
1.741,0,0,0,0,0,0
1.742,0.625,0,0,0,0,0
1.743,0.625,0,0,0,0,0
1.744,0.625,0,0,0,0,0
1.745,0.625,0,0,0,0,0
1.746,0.9375,0,0,0,0,0
1.747,1.25,0,0,0,0,0
1.748,1.25,0,0,0,0,0
1.749,1.25,0,0,0,0,0
1.75,1.25,0,0,0,0,0
1.751,1.25,0,0,0,0,0
1.752,1.25,0,0,0,0,0
1.753,1.875,0,0,0,0,0
1.754,1.875,0,0,0,0,0
1.755,1.875,0,0,0,0,0
1.756,2.1875,0,0,0,0,0
1.757,2.5,0,0,0,0,0
1.758,2.8125,0,0,0,0,0
1.759,3.125,0,0,0,0,0
1.76,2.5,0,0,0,0,0
1.761,2.5,0,0,0,0,0
1.762,2.8125,0,0,0,0,0
1.763,2.5,0,0,0,0,0
1.764,2.5,0,0,0,0,0
1.765,2.5,0,0,0,0,0
1.766,3.125,0,0,0,0,0
1.767,3.125,0,0,0,0,0
1.768,3.4375,0,0,0,0,0
1.769,3.75,0,0,0,0,0
1.77,3.125,0,0,0,0,0
1.771,2.5,0,0,0,0,0
1.772,3.4375,0,0,0,0,0
1.773,3.125,0,0,0,0,0
1.774,3.4375,0,0,0,0,0
1.775,3.75,0,0,0,0,0
1.776,3.4375,0,0,0,0,0
1.777,3.125,0,0,0,0,0
1.778,2.8125,0,0,0,0,0
1.779,3.125,0,0,0,0,0
1.78,2.1875,0,0,0,0,0
1.781,2.5,0,0,0,0,0
1.782,2.5,0,0,0,0,0
1.783,1.875,0,0,0,0,0
1.784,1.25,0,0,0,0,0
1.785,1.25,0,0,0,0,0
1.786,1.5625,0,0,0,0,0
1.787,1.25,0,0,0,0,0
1.788,1.25,0,0,0,0,0
1.789,1.25,0,0,0,0,0
1.79,1.875,0,0,0,0,0
1.791,1.875,0,0,0,0,0
1.792,1.875,0,0,0,0,0
1.793,1.875,0,0,0,0,0
1.794,1.25,0,0,0,0,0
1.795,1.25,0,0,0,0,0
1.796,1.25,0,0,0,0,0
1.797,1.25,0,0,0,0,0
1.798,1.5625,0,0,0,0,0
1.799,1.25,0,0,0,0,0
1.8,1.25,0,0,0,0,0
1.801,1.875,0,0,0,0,0
1.802,1.875,0,0,0,0,0
1.803,1.25,0,0,0,0,0
1.804,1.25,0,0,0,0,0
1.805,1.875,0,0,0,0,0
1.806,1.875,0,0,0,0,0
1.807,1.875,0,0,0,0,0
1.808,1.875,0,0,0,0,0
1.809,1.875,0,0,0,0,0
1.81,1.5625,0,0,0,0,0
1.811,1.25,0,0,0,0,0
1.812,0.9375,0,0,0,0,0
1.813,0.625,0,0,0,0,0
1.814,0.9375,0,0,0,0,0
1.815,0.625,0,0,0,0,0
1.816,0.3125,0,0,0,0,0
1.817,0,0,0,0,0,0
1.818,0.3125,0,0,0,0,0
1.819,0.625,0,0,0,0,0
1.82,0.3125,0,0,0,0,0
1.821,0.625,0,0,0,0,0
1.822,0.3125,0,0,0,0,0
1.823,0.625,0,0,0,0,0
1.824,0,0,0,0,0,0
1.825,0.625,0,0,0,0,0
1.826,0.3125,0,0,0,0,0
1.827,0.625,0,0,0,0,0
1.828,0.625,0,0,0,0,0
1.829,0,0,0,0,0,0
1.83,0.625,0,0,0,0,0
1.831,0.625,0,0,0,0,0
1.832,0.9375,0,0,0,0,0
1.833,1.25,0,0,0,0,0
1.834,0.625,0,0,0,0,0
1.835,0.625,0,0,0,0,0
1.836,1.25,0,0,0,0,0
1.837,0.625,0,0,0,0,0
1.838,0.625,0,0,0,0,0
1.839,0,0,0,0,0,0
1.84,0,0,0,0,0,0
1.841,0,0,0,0,0,0
1.842,0,0,0,0,0,0
1.843,0,0,0,0,0,0
1.844,0,0,0,0,0,0
1.845,0,0,0,0,0,0
1.846,0.3125,0,0,0,0,0
1.847,0.625,0,0,0,0,0
1.848,0.625,0,0,0,0,0
1.849,0.625,0,0,0,0,0
1.85,0.625,0,0,0,0,0
1.851,0.625,0,0,0,0,0
1.852,0.9375,0,0,0,0,0
1.853,1.25,0,0,0,0,0
1.854,0.625,0,0,0,0,0
1.855,1.25,0,0,0,0,0
1.856,0.9375,0,0,0,0,0
1.857,0.625,0,0,0,0,0
1.858,0.9375,0,0,0,0,0
1.859,1.25,0,0,0,0,0
1.86,0.9375,0,0,0,0,0
1.861,0.625,0,0,0,0,0
1.862,0.625,0,0,0,0,0
1.863,0.625,0,0,0,0,0
1.864,0.3125,0,0,0,0,0
1.865,0,0,0,0,0,0
1.866,0,0,0,0,0,0
1.867,0,0,0,0,0,0
1.868,0,0,0,0,0,0
1.869,0,0,0,0,0,0
1.87,-0.3125,0,0,0,0,0
1.871,-0.625,0,0,0,0,0
1.872,-0.625,0,0,0,0,0
1.873,-0.625,0,0,0,0,0
1.874,-0.3125,0,0,0,0,0
1.875,0,0,0,0,0,0
1.876,0.3125,0,0,0,0,0
1.877,0,0,0,0,0,0
1.878,-0.3125,0,0,0,0,0
1.879,0,0,0,0,0,0
1.88,0,0,0,0,0,0
1.881,0,0,0,0,0,0
1.882,-0.3125,0,0,0,0,0
1.883,-0.625,0,0,0,0,0
1.884,-0.3125,0,0,0,0,0
1.885,-0.625,0,0,0,0,0
1.886,0,0,0,0,0,0
1.887,0,0,0,0,0,0
1.888,0,0,0,0,0,0
1.889,0,0,0,0,0,0
1.89,0.625,0,0,0,0,0
1.891,0.625,0,0,0,0,0
1.892,0.625,0,0,0,0,0
1.893,0.625,0,0,0,0,0
1.894,0.625,0,0,0,0,0
1.895,0.625,0,0,0,0,0
1.896,0.625,0,0,0,0,0
1.897,0.625,0,0,0,0,0
1.898,0.625,1,0,0,0,0
1.899,0.625,0,0,0,0,0
1.9,0.9375,0,0,0,0,0
1.901,0.625,0,0,0,0,0
1.902,1.5625,0,0,0,0,0
1.903,1.875,0,0,0,0,0
1.904,2.1875,0,0,0,0,0
1.905,2.5,0,0,0,0,0
1.906,2.1875,0,0,0,0,0
1.907,2.5,0,0,0,0,0
1.908,3.4375,0,0,0,0,0
1.909,3.75,0,0,0,0,0
1.91,4.0625,0,0,0,0,0
1.911,4.375,0,0,0,0,0
1.912,4.6875,0,0,0,0,0
1.913,5.625,0,0,0,0,0
1.914,5.625,0,0,0,0,0
1.915,6.25,0,0,0,0,0
1.916,6.25,0,0,0,0,0
1.917,6.25,0,0,0,0,0
1.918,7.5,0,0,0,0,0
1.919,8.75,0,0,0,0,0
1.92,10,0,0,0,0,0
1.921,11.875,0,0,0,0,0
1.922,12.813,0,0,0,0,0
1.923,13.125,0,0,0,0,0
1.924,14.063,0,0,0,0,0
1.925,15,0,0,0,0,0
1.926,16.563,0,0,0,0,0
1.927,18.75,0,0,0,0,0
1.928,19.688,0,0,0,0,0
1.929,21.25,0,0,0,0,0
1.93,23.438,0,0,0,0,0
1.931,25.625,0,0,0,0,0
1.932,29.063,0,0,0,0,0
1.933,32.5,0,0,0,0,0
1.934,35.313,0,0,0,0,0
1.935,39.375,0,0,0,0,0
1.936,44.063,0,0,0,0,0
1.937,48.125,0,0,0,0,0
1.938,52.813,0,0,0,0,0
1.939,58.125,0,0,0,0,0
1.94,62.188,0,0,0,0,0
1.941,66.875,0,0,0,0,0
1.942,70.938,0,0,0,0,0
1.943,75.625,0,0,0,0,0
1.944,80.938,0,0,0,0,0
1.945,85,0,0,0,0,0
1.946,88.438,0,0,0,0,0
1.947,92.5,0,0,0,0,0
1.948,95.313,0,1,0,0,0
1.949,96.875,0,0,0,0,0
1.95,98.125,0,0,0,0,0
1.951,97.5,0,0,0,0,0
1.952,96.563,0,0,0,0,0
1.953,95.625,0,0,0,0,0
1.954,95.625,0,0,0,0,0
1.955,94.375,0,0,0,0,0
1.956,91.875,0,0,0,0,0
1.957,86.875,0,0,0,0,0
1.958,81.875,0,0,0,0,0
1.959,75,0,0,0,0,0
1.96,63.438,0,0,0,0,0
1.961,50,0,0,0,0,0
1.962,39.063,0,0,0,0,0
1.963,29.375,0,0,0,0,0
1.964,21.25,0,0,0,0,0
1.965,13.125,0,0,0,0,0
1.966,4.0625,0,0,0,0,0
1.967,-6.25,0,0,0,0,0
1.968,-17.5,0,0,0,0,0
1.969,-27.5,0,0,0,0,0
1.97,-34.688,0,0,0,0,0
1.971,-39.375,0,0,0,0,0
1.972,-41.563,0,0,0,0,0
1.973,-43.125,0,0,0,0,0
1.974,-44.688,0,0,0,0,0
1.975,-44.375,0,0,0,0,0
1.976,-43.125,0,0,0,0,0
1.977,-42.5,0,0,0,0,0
1.978,-40.938,0,0,0,0,0
1.979,-38.75,0,0,0,0,0
1.98,-36.875,0,0,0,0,0
1.981,-34.375,0,0,0,0,0
1.982,-31.563,0,0,0,0,0
1.983,-28.75,0,0,0,0,0
1.984,-26.875,0,0,0,0,0
1.985,-25,0,0,0,0,0
1.986,-21.875,0,0,0,0,0
1.987,-19.375,0,0,0,0,0
1.988,-17.188,0,0,0,0,0
1.989,-15.625,0,0,0,0,0
1.99,-14.063,0,0,0,0,0
1.991,-13.125,0,0,0,0,0
1.992,-11.563,0,0,0,0,0
1.993,-10.625,0,0,0,0,0
1.994,-10.313,0,0,0,0,0
1.995,-8.75,0,0,0,0,0
1.996,-8.125,0,0,0,0,0
1.997,-7.5,0,0,0,0,0
1.998,-6.5625,0,0,0,0,0
1.999,-5,0,0,0,0,0
2,-4.375,0,0,0,0,0
2.001,-3.75,0,0,1,0,0
2.002,-3.125,0,0,0,0,0
2.003,-3.125,0,0,0,0,0
2.004,-2.5,0,0,0,0,0
2.005,-2.5,0,0,0,0,0
2.006,-2.1875,0,0,0,0,0
2.007,-1.875,0,0,0,0,0
2.008,-2.5,0,0,0,0,0
2.009,-1.875,0,0,0,0,0
2.01,-2.1875,0,0,0,0,0
2.011,-2.5,0,0,0,0,0
2.012,-1.875,0,0,0,0,0
2.013,-1.875,0,0,0,0,0
2.014,-1.875,0,0,0,0,0
2.015,-1.875,0,0,0,0,0
2.016,-1.875,0,0,0,0,0
2.017,-1.875,0,0,0,0,0
2.018,-1.5625,0,0,0,0,0
2.019,-1.25,0,0,0,0,0
2.02,-0.9375,0,0,0,0,0
2.021,-0.625,0,0,0,0,0
2.022,-0.625,0,0,0,0,0
2.023,-0.625,0,0,0,0,0
2.024,0,0,0,0,0,0
2.025,0,0,0,0,0,0
2.026,-0.3125,0,0,0,0,0
2.027,0,0,0,0,0,0
2.028,-0.3125,0,0,0,0,0
2.029,-0.625,0,0,0,0,0
2.03,-0.9375,0,0,0,0,0
2.031,-1.25,0,0,0,0,0
2.032,-1.5625,0,0,0,0,0
2.033,-1.875,0,0,0,0,0
2.034,-1.875,0,0,0,0,0
2.035,-2.5,0,0,0,0,0
2.036,-2.5,0,0,0,0,0
2.037,-1.875,0,0,0,0,0
2.038,-2.1875,0,0,0,0,0
2.039,-2.5,0,0,0,0,0
2.04,-2.5,0,0,0,0,0
2.041,-2.5,0,0,0,0,0
2.042,-1.875,0,0,0,0,0
2.043,-1.875,0,0,0,0,0
2.044,-1.875,0,0,0,0,0
2.045,-1.875,0,0,0,0,0
2.046,-1.875,0,0,0,0,0
2.047,-1.25,0,0,0,0,0
2.048,-1.5625,0,0,0,0,0
2.049,-1.875,0,0,0,0,0
2.05,-1.25,0,0,0,0,0
2.051,-1.25,0,0,0,0,0
2.052,-1.25,0,0,0,0,0
2.053,-1.25,0,0,0,0,0
2.054,-0.9375,0,0,0,0,0
2.055,-1.25,0,0,0,0,0
2.056,-0.625,0,0,0,0,0
2.057,-0.625,0,0,0,0,0
2.058,-0.3125,0,0,0,0,0
2.059,-0.625,0,0,0,0,0
2.06,-0.9375,0,0,0,0,0
2.061,-0.625,0,0,0,0,0
2.062,-0.9375,0,0,0,0,0
2.063,-1.25,0,0,0,0,0
2.064,-1.25,0,0,0,0,0
2.065,-1.25,0,0,0,0,0
2.066,-0.625,0,0,0,0,0
2.067,0,0,0,0,0,0
2.068,-0.625,0,0,0,0,0
2.069,0,0,0,0,0,0
2.07,-0.625,0,0,0,0,0
2.071,-0.625,0,0,0,0,0
2.072,-0.3125,0,0,0,0,0
2.073,0,0,0,0,0,0
2.074,0,0,0,0,0,0
2.075,0,0,0,0,0,0
2.076,0,0,0,0,0,0
2.077,0,0,0,0,0,0
2.078,0,0,0,0,0,0
2.079,0,0,0,0,0,0
2.08,0,0,0,0,0,0
2.081,0,0,0,0,0,0
2.082,-0.3125,0,0,0,0,0
2.083,-0.625,0,0,0,0,0
2.084,-0.625,0,0,0,0,0
2.085,-0.625,0,0,0,0,0
2.086,-0.9375,0,0,0,0,0
2.087,-1.25,0,0,0,0,0
2.088,-1.25,0,0,0,0,0
2.089,-0.625,0,0,0,0,0
2.09,-0.625,0,0,0,0,0
2.091,-1.25,0,0,0,0,0
2.092,-1.25,0,0,0,0,0
2.093,-1.25,0,0,0,0,0
2.094,-0.9375,0,0,0,0,0
2.095,-0.625,0,0,0,0,0
2.096,-0.3125,0,0,0,0,0
2.097,0,0,0,0,0,0
2.098,0,0,0,0,0,0
2.099,0,0,0,0,0,0
2.1,-0.9375,0,0,0,0,0
2.101,-0.625,0,0,0,0,0
2.102,-0.9375,0,0,0,0,0
2.103,-1.25,0,0,0,0,0
2.104,-0.9375,0,0,0,0,0
2.105,-0.625,0,0,0,0,0
2.106,0.3125,0,0,0,0,0
2.107,0.625,0,0,0,0,0
2.108,0.9375,0,0,0,0,0
2.109,1.25,0,0,0,0,0
2.11,1.25,0,0,0,0,0
2.111,1.25,0,0,0,0,0
2.112,0.9375,0,0,0,0,0
2.113,0,0,0,0,0,0
2.114,0.625,0,0,0,0,0
2.115,0,0,0,0,0,0
2.116,1.25,0,0,0,0,0
2.117,1.25,0,0,0,0,0
2.118,1.25,0,0,0,0,0
2.119,1.25,0,0,0,0,0
2.12,1.25,0,0,0,0,0
2.121,1.25,0,0,0,0,0
2.122,0.9375,0,0,0,0,0
2.123,0.625,0,0,0,0,0
2.124,0.625,0,0,0,0,0
2.125,0.625,0,0,0,0,0
2.126,0.3125,0,0,0,0,0
2.127,0,0,0,0,0,0
2.128,0,0,0,0,0,0
2.129,0,0,0,0,0,0
2.13,0,0,0,0,0,0
2.131,0,0,0,0,0,0
2.132,0.3125,0,0,0,0,0
2.133,0.625,0,0,0,0,0
2.134,0.625,0,0,0,0,0
2.135,0.625,0,0,0,0,0
2.136,0,0,0,0,0,0
2.137,-0.625,0,0,0,0,0
2.138,-0.3125,0,0,0,0,0
2.139,0,0,0,0,0,0
2.14,0,0,0,0,0,0
2.141,0,0,0,0,0,0
2.142,0,0,0,0,0,0
2.143,0,0,0,0,0,0
2.144,0,0,0,0,0,0
2.145,0,0,0,0,0,0
2.146,-0.625,0,0,0,0,0
2.147,0,0,0,0,0,0
2.148,0,0,0,0,0,0
2.149,0,0,0,0,0,0
2.15,0,0,0,0,0,0
2.151,0,0,0,0,0,0
2.152,0.625,0,0,0,0,0
2.153,0.625,0,0,0,0,0
2.154,-0.3125,0,0,0,0,0
2.155,-0.625,0,0,0,0,0
2.156,-0.625,0,0,0,0,0
2.157,-0.625,0,0,0,0,0
2.158,0,0,0,0,0,0
2.159,-0.625,0,0,0,0,0
2.16,-0.3125,0,0,0,0,0
2.161,0,0,0,0,0,0
2.162,0,0,0,0,0,0
2.163,0,0,0,0,0,0
2.164,-0.3125,0,0,0,0,0
2.165,0,0,0,0,0,0
2.166,0.3125,0,0,0,0,0
2.167,0.625,0,0,0,0,0
2.168,0.3125,0,0,0,0,0
2.169,0,0,0,0,0,0
2.17,0.3125,0,0,0,0,0
2.171,0,0,0,0,0,0
2.172,0.3125,0,0,0,0,0
2.173,0.625,0,0,0,0,0
2.174,1.25,0,0,0,0,0
2.175,1.25,0,0,0,0,0
2.176,0.625,0,0,0,0,0
2.177,0.625,0,0,0,0,0
2.178,0.625,0,0,0,0,0
2.179,0.625,0,0,0,0,0
2.18,0.625,0,0,0,0,0
2.181,0.625,0,0,0,0,0
2.182,0,0,0,0,0,0
2.183,0,0,0,0,0,0
2.184,0,0,0,0,0,0
2.185,0,0,0,0,0,0
2.186,0.3125,0,0,0,0,0
2.187,0.625,0,0,0,0,0
2.188,0.3125,0,0,0,0,0
2.189,0,0,0,0,0,0
2.19,0,0,0,0,0,0
2.191,0.625,0,0,0,0,0
2.192,0.9375,0,0,0,0,0
2.193,0.625,0,0,0,0,0
2.194,0.9375,0,0,0,0,0
2.195,0.625,0,0,0,0,0
2.196,0.625,0,0,0,0,0
2.197,0.625,0,0,0,0,0
2.198,0.625,0,0,0,0,0
2.199,0.625,0,0,0,0,0
2.2,0.625,0,0,0,0,0
2.201,0.625,0,0,0,0,0
2.202,0.625,0,0,0,0,0
2.203,0.625,0,0,0,0,0
2.204,0.9375,0,0,0,0,0
2.205,1.25,0,0,0,0,0
2.206,0.9375,0,0,0,0,0
2.207,0.625,0,0,0,0,0
2.208,0.625,0,0,0,0,0
2.209,0.625,0,0,0,0,0
2.21,0.625,0,0,0,0,0
2.211,0.625,0,0,0,0,0
2.212,0.3125,0,0,0,0,0
2.213,0,0,0,0,0,0
2.214,0.3125,0,0,0,0,0
2.215,0.625,0,0,0,0,0
2.216,0.625,0,0,0,0,0
2.217,0.625,0,0,0,0,0
2.218,0.625,0,0,0,0,0
2.219,0.625,0,0,0,0,0
2.22,0.9375,0,0,0,0,0
2.221,1.25,0,0,0,0,0
2.222,1.25,0,0,0,0,0
2.223,1.25,0,0,0,0,0
2.224,1.25,0,0,0,0,0
2.225,1.25,0,0,0,0,0
2.226,0.9375,0,0,0,0,0
2.227,1.25,0,0,0,0,0
2.228,0.625,0,0,0,0,0
2.229,0,0,0,0,0,0
2.23,-0.3125,0,0,0,0,0
2.231,0,0,0,0,0,0
2.232,-0.625,0,0,0,0,0
2.233,-0.625,0,0,0,0,0
2.234,0,0,0,0,0,0
2.235,0,0,0,0,0,0
2.236,0.3125,0,0,0,0,0
2.237,0.625,0,0,0,0,0
2.238,0,0,0,0,0,0
2.239,0,0,0,0,0,0
2.24,-0.3125,0,0,0,0,0
2.241,0,0,0,0,0,0
2.242,-0.3125,0,0,0,0,0
2.243,-0.625,0,0,0,0,0
2.244,0,0,0,0,0,0
2.245,0,0,0,0,0,0
2.246,-0.3125,0,0,0,0,0
2.247,0.625,0,0,0,0,0
2.248,-0.3125,0,0,0,0,0
2.249,-0.625,0,0,0,0,0
2.25,0,0,0,0,0,0
2.251,-0.625,0,0,0,0,0
2.252,0.3125,0,0,0,0,0
2.253,0,0,0,0,0,0
2.254,0.625,0,0,0,0,0
2.255,0.625,0,0,0,0,0
2.256,0.3125,0,0,0,0,0
2.257,0,0,0,0,0,0
2.258,-0.625,0,0,0,0,0
2.259,0,0,0,0,0,0
2.26,-0.625,0,0,0,0,0
2.261,-0.625,0,0,0,0,0
2.262,0,0,0,0,0,0
2.263,0,0,0,0,0,0
2.264,-0.625,0,0,0,0,0
2.265,-1.25,0,0,0,0,0
2.266,-0.625,0,0,0,0,0
2.267,-0.625,0,0,0,0,0
2.268,-0.9375,0,0,0,0,0
2.269,-0.625,0,0,0,0,0
2.27,-0.625,0,0,0,0,0
2.271,-0.625,0,0,0,0,0
2.272,-0.625,0,0,0,0,0
2.273,-0.625,0,0,0,0,0
2.274,-0.625,0,0,0,0,0
2.275,0,0,0,0,0,0
2.276,-0.625,0,0,0,0,0
2.277,-1.25,0,0,0,0,0
2.278,0,0,0,0,0,0
2.279,0,0,0,0,0,0
2.28,-0.3125,0,0,0,0,0
2.281,0,0,0,0,0,0
2.282,0,0,0,0,0,0
2.283,0,0,0,0,0,0
2.284,0,0,0,0,0,0
2.285,-0.625,0,0,0,0,0
2.286,-0.9375,0,0,0,0,0
2.287,-0.625,0,0,0,0,0
2.288,-0.9375,0,0,0,0,0
2.289,-1.25,0,0,0,0,0
2.29,-0.625,0,0,0,0,0
2.291,-0.625,0,0,0,0,0
2.292,-0.625,0,0,0,0,0
2.293,0,0,0,0,0,0
2.294,0.3125,0,0,0,0,0
2.295,0.625,0,0,0,0,0
2.296,0.3125,0,0,0,0,0
2.297,0,0,0,0,0,0
2.298,0.625,0,0,0,0,0
2.299,1.25,0,0,0,0,0
2.3,1.875,0,0,0,0,0
2.301,1.875,0,0,0,0,0
2.302,2.5,0,0,0,0,0
2.303,2.5,0,0,0,0,0
2.304,1.5625,0,0,0,0,0
2.305,1.875,0,0,0,0,0
2.306,2.1875,0,0,0,0,0
2.307,2.5,0,0,0,0,0
2.308,2.8125,0,0,0,0,0
2.309,2.5,0,0,0,0,0
2.31,2.1875,0,0,0,0,0
2.311,2.5,0,0,0,0,0
2.312,3.4375,0,0,0,0,0
2.313,4.375,0,0,0,0,0
2.314,4.6875,0,0,0,0,0
2.315,4.375,0,0,0,0,0
2.316,4.6875,0,0,0,0,0
2.317,4.375,0,0,0,0,0
2.318,4.6875,0,0,0,0,0
2.319,5,0,0,0,0,0
2.32,5.3125,0,0,0,0,0
2.321,5.625,0,0,0,0,0
2.322,5.625,0,0,0,0,0
2.323,6.25,0,0,0,0,0
2.324,5.625,0,0,0,0,0
2.325,6.25,0,0,0,0,0
2.326,5.625,0,0,0,0,0
2.327,5.625,0,0,0,0,0
2.328,5.3125,0,0,0,0,0
2.329,5.625,0,0,0,0,0
2.33,5,0,0,0,0,0
2.331,5.625,0,0,0,1,0
2.332,5.9375,0,0,0,0,0
2.333,6.25,0,0,0,0,0
2.334,6.25,0,0,0,0,0
2.335,6.25,0,0,0,0,0
2.336,5.625,0,0,0,0,0
2.337,5.625,0,0,0,0,0
2.338,6.25,0,0,0,0,0
2.339,6.25,0,0,0,0,0
2.34,5.625,0,0,0,0,0
2.341,6.25,0,0,0,0,0
2.342,6.5625,0,0,0,0,0
2.343,6.875,0,0,0,0,0
2.344,6.25,0,0,0,0,0
2.345,6.25,0,0,0,0,0
2.346,6.25,0,0,0,0,0
2.347,6.25,0,0,0,0,0
2.348,6.25,0,0,0,0,0
2.349,6.25,0,0,0,0,0
2.35,6.25,0,0,0,0,0
2.351,5.625,0,0,0,0,0
2.352,5.9375,0,0,0,0,0
2.353,6.25,0,0,0,0,0
2.354,5.3125,0,0,0,0,0
2.355,5,0,0,0,0,0
2.356,5,0,0,0,0,0
2.357,5,0,0,0,0,0
2.358,4.6875,0,0,0,0,0
2.359,4.375,0,0,0,0,0
2.36,5,0,0,0,0,0
2.361,5.625,0,0,0,0,0
2.362,5.3125,0,0,0,0,0
2.363,5,0,0,0,0,0
2.364,5,0,0,0,0,0
2.365,5,0,0,0,0,0
2.366,4.6875,0,0,0,0,0
2.367,5,0,0,0,0,0
2.368,5.3125,0,0,0,0,0
2.369,5.625,0,0,0,0,0
2.37,5.625,0,0,0,0,0
2.371,5.625,0,0,0,0,0
2.372,5.625,0,0,0,0,0
2.373,5.625,0,0,0,0,0
2.374,5,0,0,0,0,0
2.375,5,0,0,0,0,0
2.376,5,0,0,0,0,0
2.377,5,0,0,0,0,0
2.378,5,0,0,0,0,0
2.379,5,0,0,0,0,0
2.38,4.6875,0,0,0,0,0
2.381,4.375,0,0,0,0,0
2.382,4.0625,0,0,0,0,0
2.383,4.375,0,0,0,0,0
2.384,4.6875,0,0,0,0,0
2.385,5,0,0,0,0,0
2.386,5.3125,0,0,0,0,0
2.387,5.625,0,0,0,0,0
2.388,5,0,0,0,0,0
2.389,5.625,0,0,0,0,0
2.39,4.6875,0,0,0,0,0
2.391,5,0,0,0,0,0
2.392,4.6875,0,0,0,0,0
2.393,5,0,0,0,0,0
2.394,5,0,0,0,0,0
2.395,5,0,0,0,0,0
2.396,5,0,0,0,0,0
2.397,5,0,0,0,0,0
2.398,4.6875,0,0,0,0,0
2.399,4.375,0,0,0,0,0
2.4,4.0625,0,0,0,0,0
2.401,3.75,0,0,0,0,0
2.402,3.75,0,0,0,0,0
2.403,3.75,0,0,0,0,0
2.404,4.0625,0,0,0,0,0
2.405,4.375,0,0,0,0,0
2.406,3.75,0,0,0,0,0
2.407,3.75,0,0,0,0,0
2.408,3.75,0,0,0,0,0
2.409,4.375,0,0,0,0,0
2.41,4.375,0,0,0,0,0
2.411,4.375,0,0,0,0,0
2.412,4.375,0,0,0,0,0
2.413,4.375,0,0,0,0,0
2.414,4.6875,0,0,0,0,0
2.415,5,0,0,0,0,0
2.416,5,0,0,0,0,0
2.417,5,0,0,0,0,0
2.418,5,0,0,0,0,0
2.419,5,0,0,0,0,0
2.42,4.375,0,0,0,0,0
2.421,4.375,0,0,0,0,0
2.422,4.375,0,0,0,0,0
2.423,4.375,0,0,0,0,0
2.424,4.0625,0,0,0,0,0
2.425,3.75,0,0,0,0,0
2.426,4.0625,0,0,0,0,0
2.427,4.375,0,0,0,0,0
2.428,4.0625,0,0,0,0,0
2.429,3.75,0,0,0,0,0
2.43,3.75,0,0,0,0,0
2.431,3.75,0,0,0,0,0
2.432,3.75,0,0,0,0,0
2.433,3.75,0,0,0,0,0
2.434,3.75,0,0,0,0,0
2.435,3.75,0,0,0,0,0
2.436,3.125,0,0,0,0,0
2.437,3.125,0,0,0,0,0
2.438,3.4375,0,0,0,0,0
2.439,3.75,0,0,0,0,0
2.44,3.4375,0,0,0,0,0
2.441,3.75,0,0,0,0,0
2.442,3.75,0,0,0,0,0
2.443,3.75,0,0,0,0,0
2.444,3.75,0,0,0,0,0
2.445,3.75,0,0,0,0,0
2.446,4.0625,0,0,0,0,0
2.447,4.375,0,0,0,0,0
2.448,4.0625,0,0,0,0,0
2.449,3.75,0,0,0,0,0
2.45,3.75,0,0,0,0,0
2.451,3.75,0,0,0,0,0
2.452,3.75,0,0,0,0,0
2.453,3.75,0,0,0,0,0
2.454,3.75,0,0,0,0,0
2.455,3.75,0,0,0,0,0
2.456,3.75,0,0,0,0,0
2.457,3.125,0,0,0,0,0
2.458,3.4375,0,0,0,0,0
2.459,3.125,0,0,0,0,0
2.46,3.4375,0,0,0,0,0
2.461,3.75,0,0,0,0,0
2.462,2.8125,0,0,0,0,0
2.463,3.125,0,0,0,0,0
2.464,2.1875,0,0,0,0,0
2.465,2.5,0,0,0,0,0
2.466,2.1875,0,0,0,0,0
2.467,2.5,0,0,0,0,0
2.468,2.5,0,0,0,0,0
2.469,2.5,0,0,0,0,0
2.47,2.1875,0,0,0,0,0
2.471,1.875,0,0,0,0,0
2.472,1.875,0,0,0,0,0
2.473,1.875,0,0,0,0,0
2.474,2.1875,0,0,0,0,0
2.475,2.5,0,0,0,0,0
2.476,2.1875,0,0,0,0,0
2.477,2.5,0,0,0,0,0
2.478,2.1875,0,0,0,0,0
2.479,2.5,0,0,0,0,0
2.48,2.8125,0,0,0,0,0
2.481,3.125,0,0,0,0,0
2.482,2.5,0,0,0,0,0
2.483,1.875,0,0,0,0,0
2.484,2.8125,0,0,0,0,0
2.485,2.5,0,0,0,0,0
2.486,2.1875,0,0,0,0,0
2.487,1.875,0,0,0,0,0
2.488,2.1875,0,0,0,0,0
2.489,2.5,0,0,0,0,0
2.49,2.8125,0,0,0,0,0
2.491,2.5,0,0,0,0,0
2.492,2.8125,0,0,0,0,0
2.493,3.125,0,0,0,0,0
2.494,3.125,0,0,0,0,0
2.495,3.125,0,0,0,0,0
2.496,2.8125,0,0,0,0,0
2.497,3.125,0,0,0,0,0
2.498,3.4375,0,0,0,0,0
2.499,3.75,0,0,0,0,0
2.5,3.75,0,0,0,0,0
2.501,3.75,0,0,0,0,0
2.502,3.4375,0,0,0,0,0
2.503,3.125,0,0,0,0,0
2.504,2.8125,0,0,0,0,0
2.505,2.5,0,0,0,0,0
2.506,2.5,0,0,0,0,1
2.507,2.5,0,0,0,0,0
2.508,2.1875,0,0,0,0,0
2.509,1.875,0,0,0,0,0
2.51,2.1875,0,0,0,0,0
2.511,1.875,0,0,0,0,0
2.512,1.875,0,0,0,0,0
2.513,1.875,0,0,0,0,0
2.514,1.875,0,0,0,0,0
2.515,1.875,0,0,0,0,0
2.516,1.5625,0,0,0,0,0
2.517,1.25,0,0,0,0,0
2.518,1.875,0,0,0,0,0
2.519,1.25,0,0,0,0,0
2.52,1.25,0,0,0,0,0
2.521,1.25,0,0,0,0,0
2.522,1.5625,0,0,0,0,0
2.523,1.25,0,0,0,0,0
2.524,1.5625,0,0,0,0,0
2.525,1.25,0,0,0,0,0
2.526,1.875,0,0,0,0,0
2.527,1.25,0,0,0,0,0
2.528,1.5625,0,0,0,0,0
2.529,1.25,0,0,0,0,0
2.53,1.5625,0,0,0,0,0
2.531,1.25,0,0,0,0,0
2.532,1.25,0,0,0,0,0
2.533,1.25,0,0,0,0,0
2.534,0.625,0,0,0,0,0
2.535,1.25,0,0,0,0,0
2.536,0.9375,0,0,0,0,0
2.537,0.625,0,0,0,0,0
2.538,0.9375,0,0,0,0,0
2.539,1.25,0,0,0,0,0
2.54,1.25,0,0,0,0,0
2.541,1.25,0,0,0,0,0
2.542,1.5625,0,0,0,0,0
2.543,1.875,0,0,0,0,0
2.544,1.875,0,0,0,0,0
2.545,1.875,0,0,0,0,0
2.546,2.1875,0,0,0,0,0
2.547,2.5,0,0,0,0,0
2.548,2.1875,0,0,0,0,0
2.549,2.5,0,0,0,0,0
2.55,2.1875,0,0,0,0,0
2.551,2.5,0,0,0,0,0
2.552,2.5,0,0,0,0,0
2.553,1.875,0,0,0,0,0
2.554,1.875,0,0,0,0,0
2.555,1.875,0,0,0,0,0
2.556,1.5625,0,0,0,0,0
2.557,1.25,0,0,0,0,0
2.558,0.625,0,0,0,0,0
2.559,0.625,0,0,0,0,0
2.56,0.3125,0,0,0,0,0
2.561,0.625,0,0,0,0,0
2.562,0.625,0,0,0,0,0
2.563,0,0,0,0,0,0
2.564,0.3125,0,0,0,0,0
2.565,0,0,0,0,0,0
2.566,0.3125,0,0,0,0,0
2.567,0.625,0,0,0,0,0
2.568,0.3125,0,0,0,0,0
2.569,0.625,0,0,0,0,0
2.57,0.625,0,0,0,0,0
2.571,0.625,0,0,0,0,0
2.572,0.625,0,0,0,0,0
2.573,0.625,0,0,0,0,0
2.574,0.625,0,0,0,0,0
2.575,0.625,0,0,0,0,0
2.576,1.25,0,0,0,0,0
2.577,1.25,0,0,0,0,0
2.578,1.25,0,0,0,0,0
2.579,1.25,0,0,0,0,0
2.58,1.5625,0,0,0,0,0
2.581,1.875,0,0,0,0,0
2.582,1.5625,0,0,0,0,0
2.583,1.25,0,0,0,0,0
2.584,1.25,0,0,0,0,0
2.585,0.625,0,0,0,0,0
2.586,1.5625,0,0,0,0,0
2.587,1.25,0,0,0,0,0
2.588,1.5625,0,0,0,0,0
2.589,1.25,0,0,0,0,0
2.59,0.9375,0,0,0,0,0
2.591,0.625,0,0,0,0,0
2.592,0.9375,0,0,0,0,0
2.593,1.25,0,0,0,0,0
2.594,0.9375,0,0,0,0,0
2.595,1.25,0,0,0,0,0
2.596,0.9375,0,0,0,0,0
2.597,1.25,0,0,0,0,0
2.598,1.5625,0,0,0,0,0
2.599,1.25,0,0,0,0,0
2.6,1.875,0,0,0,0,0
2.601,1.875,0,0,0,0,0
2.602,1.5625,0,0,0,0,0
2.603,1.25,0,0,0,0,0
2.604,0.9375,0,0,0,0,0
2.605,0.625,0,0,0,0,0
2.606,0.3125,0,0,0,0,0
2.607,0,0,0,0,0,0
2.608,0,0,0,0,0,0
2.609,0,0,0,0,0,0
2.61,0.3125,0,0,0,0,0
2.611,0.625,0,0,0,0,0
2.612,-0.625,0,0,0,0,0
2.613,-0.625,0,0,0,0,0
2.614,-0.3125,0,0,0,0,0
2.615,0,0,0,0,0,0
2.616,0.3125,0,0,0,0,0
2.617,0,0,0,0,0,0
2.618,-0.3125,0,0,0,0,0
2.619,0,0,0,0,0,0
2.62,0,0,0,0,0,0
2.621,-0.625,0,0,0,0,0
2.622,-0.9375,0,0,0,0,0
2.623,-0.625,0,0,0,0,0
2.624,0,0,0,0,0,0
2.625,0,0,0,0,0,0
2.626,-0.3125,0,0,0,0,0
2.627,-0.625,0,0,0,0,0
2.628,-0.3125,0,0,0,0,0
2.629,0,0,0,0,0,0
2.63,0,0,0,0,0,0
2.631,0,0,0,0,0,0
2.632,0.625,0,0,0,0,0
2.633,0.625,0,0,0,0,0
2.634,0.625,0,0,0,0,0
2.635,0.625,0,0,0,0,0
2.636,0.625,0,0,0,0,0
2.637,0,0,0,0,0,0
2.638,0.3125,0,0,0,0,0
2.639,0.625,0,0,0,0,0
2.64,0.625,0,0,0,0,0
2.641,0,0,0,0,0,0
2.642,0.3125,0,0,0,0,0
2.643,0,0,0,0,0,0
2.644,0,0,0,0,0,0
2.645,0,0,0,0,0,0
2.646,0,0,0,0,0,0
2.647,0,0,0,0,0,0
2.648,-0.625,0,0,0,0,0
2.649,-1.25,0,0,0,0,0
2.65,-0.625,0,0,0,0,0
2.651,-0.625,0,0,0,0,0
2.652,-0.3125,0,0,0,0,0
2.653,0,0,0,0,0,0
2.654,0,0,0,0,0,0
2.655,0,0,0,0,0,0
2.656,0,0,0,0,0,0
2.657,-0.625,0,0,0,0,0
2.658,0,0,0,0,0,0
2.659,0,0,0,0,0,0
2.66,0,0,0,0,0,0
2.661,0.625,0,0,0,0,0
2.662,1.25,0,0,0,0,0
2.663,1.875,0,0,0,0,0
2.664,0.9375,0,0,0,0,0
2.665,0.625,0,0,0,0,0
2.666,1.25,0,0,0,0,0
2.667,1.25,0,0,0,0,0
2.668,1.25,0,0,0,0,0
2.669,0.625,0,0,0,0,0
2.67,0.625,0,0,0,0,0
2.671,0.625,0,0,0,0,0
2.672,0.9375,0,0,0,0,0
2.673,1.25,0,0,0,0,0
2.674,0.9375,0,0,0,0,0
2.675,0.625,0,0,0,0,0
2.676,0.3125,0,0,0,0,0
2.677,0,0,0,0,0,0
2.678,-0.3125,0,0,0,0,0
2.679,-0.625,0,0,0,0,0
2.68,0,0,0,0,0,0
2.681,0.625,0,0,0,0,0
2.682,0.625,0,0,0,0,0
2.683,0.625,0,0,0,0,0
2.684,0.3125,0,0,0,0,0
2.685,0,0,0,0,0,0
2.686,-0.625,0,0,0,0,0
2.687,0,0,0,0,0,0
2.688,0,0,0,0,0,0
2.689,0,0,0,0,0,0
2.69,0,0,0,0,0,0
2.691,-0.625,0,0,0,0,0
2.692,0,0,0,0,0,0
2.693,0,0,0,0,0,0
2.694,0.3125,0,0,0,0,0
2.695,0,0,0,0,0,0
2.696,0.3125,0,0,0,0,0
2.697,0,0,0,0,0,0
2.698,-0.625,0,0,0,0,0
2.699,-0.625,0,0,0,0,0
2.7,-0.3125,0,0,0,0,0
2.701,0,0,0,0,0,0
2.702,0.3125,0,0,0,0,0
2.703,0.625,0,0,0,0,0
2.704,-0.3125,0,0,0,0,0
2.705,0,0,0,0,0,0
2.706,-0.3125,0,0,0,0,0
2.707,0,0,0,0,0,0
2.708,0.9375,0,0,0,0,0
2.709,0.625,0,0,0,0,0
2.71,0,0,0,0,0,0
2.711,-0.625,0,0,0,0,0
2.712,-0.3125,0,0,0,0,0
2.713,0,0,0,0,0,0
2.714,0.3125,0,0,0,0,0
2.715,0,0,0,0,0,0
2.716,0.3125,0,0,0,0,0
2.717,0,0,0,0,0,0
2.718,0.3125,0,0,0,0,0
2.719,0,0,0,0,0,0
2.72,-0.625,0,0,0,0,0
2.721,-0.625,0,0,0,0,0
2.722,-1.25,0,0,0,0,0
2.723,-1.25,0,0,0,0,0
2.724,-1.25,0,0,0,0,0
2.725,-1.25,0,0,0,0,0
2.726,-0.9375,0,0,0,0,0
2.727,-0.625,0,0,0,0,0
2.728,-0.625,0,0,0,0,0
2.729,-0.625,0,0,0,0,0
2.73,-1.25,0,0,0,0,0
2.731,-1.25,0,0,0,0,0
2.732,-0.3125,0,0,0,0,0
2.733,0,0,0,0,0,0
2.734,-0.625,0,0,0,0,0
2.735,-0.625,0,0,0,0,0
2.736,-0.625,0,0,0,0,0
2.737,-0.625,0,0,0,0,0
2.738,-0.3125,0,0,0,0,0
2.739,0,0,0,0,0,0
2.74,0,0,0,0,0,0
2.741,0,0,0,0,0,0
2.742,0,0,0,0,0,0
2.743,0,0,0,0,0,0
2.744,0.3125,0,0,0,0,0
2.745,0.625,0,0,0,0,0
2.746,0,0,0,0,0,0
2.747,0.625,0,0,0,0,0
2.748,0.9375,0,0,0,0,0
2.749,1.25,0,0,0,0,0
2.75,0.3125,0,0,0,0,0
2.751,0.625,0,0,0,0,0
2.752,1.25,0,0,0,0,0
2.753,1.25,0,0,0,0,0
2.754,1.25,0,0,0,0,0
2.755,1.25,0,0,0,0,0
2.756,1.25,0,0,0,0,0
2.757,1.25,0,0,0,0,0
2.758,0.9375,0,0,0,0,0
2.759,1.25,0,0,0,0,0
2.76,1.25,0,0,0,0,0
2.761,1.25,0,0,0,0,0
2.762,0.625,0,0,0,0,0
2.763,-0.625,0,0,0,0,0
2.764,0.3125,0,0,0,0,0
2.765,0,0,0,0,0,0
2.766,-0.3125,0,0,0,0,0
2.767,-0.625,0,0,0,0,0
2.768,-0.9375,0,0,0,0,0
2.769,-1.25,0,0,0,0,0
2.77,-0.9375,0,0,0,0,0
2.771,-0.625,0,0,0,0,0
2.772,-0.9375,0,0,0,0,0
2.773,-1.25,0,0,0,0,0
2.774,-1.25,0,0,0,0,0
2.775,-1.25,0,0,0,0,0
2.776,-0.9375,0,0,0,0,0
2.777,-0.625,0,0,0,0,0
2.778,-0.625,0,0,0,0,0
2.779,-0.625,0,0,0,0,0
2.78,-0.3125,0,0,0,0,0
2.781,0,0,0,0,0,0
2.782,0.3125,0,0,0,0,0
2.783,0.625,0,0,0,0,0
2.784,-0.3125,0,0,0,0,0
2.785,0,0,0,0,0,0
2.786,0,0,0,0,0,0
2.787,0,0,0,0,0,0
2.788,-0.3125,0,0,0,0,0
2.789,0,0,0,0,0,0
2.79,0.3125,0,0,0,0,0
2.791,0.625,0,0,0,0,0
2.792,0.3125,0,0,0,0,0
2.793,0,0,0,0,0,0
2.794,0.3125,0,0,0,0,0
2.795,0.625,0,0,0,0,0
2.796,-0.3125,0,0,0,0,0
2.797,0,0,0,0,0,0
2.798,0.3125,0,0,0,0,0
2.799,0.625,0,0,0,0,0
2.8,0.9375,0,0,0,0,0
2.801,0.625,0,0,0,0,0
2.802,0.3125,0,0,0,0,0
2.803,0.625,0,0,0,0,0
2.804,0,0,0,0,0,0
2.805,0,0,0,0,0,0
2.806,0.3125,0,0,0,0,0
2.807,0.625,0,0,0,0,0
2.808,0.9375,0,0,0,0,0
2.809,1.25,0,0,0,0,0
2.81,1.25,0,0,0,0,0
2.811,1.25,0,0,0,0,0
2.812,1.25,0,0,0,0,0
2.813,1.25,0,0,0,0,0
2.814,1.25,0,0,0,0,0
2.815,1.25,0,0,0,0,0
2.816,1.25,0,0,0,0,0
2.817,1.25,0,0,0,0,0
2.818,1.25,0,0,0,0,0
2.819,1.25,0,0,0,0,0
2.82,1.25,0,0,0,0,0
2.821,0.625,0,0,0,0,0
2.822,0.9375,0,0,0,0,0
2.823,1.25,0,0,0,0,0
2.824,1.5625,0,0,0,0,0
2.825,1.875,0,0,0,0,0
2.826,1.25,0,0,0,0,0
2.827,1.25,0,0,0,0,0
2.828,1.25,0,0,0,0,0
2.829,1.25,0,0,0,0,0
2.83,1.875,0,0,0,0,0
2.831,1.875,0,0,0,0,0
2.832,1.875,0,0,0,0,0
2.833,2.5,0,0,0,0,0
2.834,2.5,0,0,0,0,0
2.835,2.5,0,0,0,0,0
2.836,2.1875,0,0,0,0,0
2.837,1.875,0,0,0,0,0
2.838,1.5625,0,0,0,0,0
2.839,1.25,0,0,0,0,0
2.84,1.5625,0,0,0,0,0
2.841,1.875,0,0,0,0,0
2.842,1.5625,0,0,0,0,0
2.843,1.25,0,0,0,0,0
2.844,1.875,0,0,0,0,0
2.845,1.875,0,0,0,0,0
2.846,2.5,0,0,0,0,0
2.847,3.125,0,0,0,0,0
2.848,2.8125,0,0,0,0,0
2.849,2.5,0,0,0,0,0
2.85,3.125,0,0,0,0,0
2.851,3.125,0,0,0,0,0
2.852,2.8125,0,0,0,0,0
2.853,3.125,0,0,0,0,0
2.854,3.125,0,0,0,0,0
2.855,3.125,0,0,0,0,0
2.856,2.5,0,0,0,0,0
2.857,2.5,0,0,0,0,0
2.858,2.5,0,0,0,0,0
2.859,2.5,0,0,0,0,0
2.86,3.125,0,0,0,0,0
2.861,3.75,0,0,0,0,0
2.862,3.75,0,0,0,0,0
2.863,4.375,0,0,0,0,0
2.864,4.0625,0,0,0,0,0
2.865,4.375,0,0,0,0,0
2.866,4.0625,0,0,0,0,0
2.867,3.75,0,0,0,0,0
2.868,3.75,0,0,0,0,0
2.869,3.125,0,0,0,0,0
2.87,2.8125,0,0,0,0,0
2.871,1.875,0,0,0,0,0
2.872,2.5,0,0,0,0,0
2.873,2.5,0,0,0,0,0
2.874,2.5,0,0,0,0,0
2.875,2.5,0,0,0,0,0
2.876,2.8125,0,0,0,0,0
2.877,3.125,0,0,0,0,0
2.878,2.1875,0,0,0,0,0
2.879,1.875,0,0,0,0,0
2.88,1.875,0,0,0,0,0
2.881,2.5,0,0,0,0,0
2.882,2.1875,0,0,0,0,0
2.883,1.875,0,0,0,0,0
2.884,1.875,0,0,0,0,0
2.885,1.25,0,0,0,0,0
2.886,1.25,0,0,0,0,0
2.887,1.25,0,0,0,0,0
2.888,1.5625,0,0,0,0,0
2.889,1.875,0,0,0,0,0
2.89,1.25,0,0,0,0,0
2.891,1.25,0,0,0,0,0
2.892,1.5625,0,0,0,0,0
2.893,1.25,0,0,0,0,0
2.894,0.9375,0,0,0,0,0
2.895,1.25,0,0,0,0,0
2.896,1.25,0,0,0,0,0
2.897,0.625,0,0,0,0,0
2.898,0.625,0,0,0,0,0
2.899,0.625,0,0,0,0,0
2.9,0.9375,0,0,0,0,0
2.901,1.25,0,0,0,0,0
2.902,0.9375,0,0,0,0,0
2.903,0.625,0,0,0,0,0
2.904,0.625,0,0,0,0,0
2.905,1.25,0,0,0,0,0
2.906,1.25,0,0,0,0,0
2.907,1.25,0,0,0,0,0
2.908,1.25,0,0,0,0,0
2.909,1.25,0,0,0,0,0
2.91,1.5625,0,0,0,0,0
2.911,1.25,0,0,0,0,0
2.912,0.625,0,0,0,0,0
2.913,0,0,0,0,0,0
2.914,0.9375,0,0,0,0,0
2.915,0.625,0,0,0,0,0
2.916,1.5625,0,0,0,0,0
2.917,1.25,0,0,0,0,0
2.918,1.25,0,0,0,0,0
2.919,1.25,0,0,0,0,0
2.92,0.625,0,0,0,0,0
2.921,1.25,0,0,0,0,0
2.922,1.25,0,0,0,0,0
2.923,1.25,0,0,0,0,0
2.924,1.5625,0,0,0,0,0
2.925,1.25,0,0,0,0,0
2.926,0.9375,0,0,0,0,0
2.927,1.25,0,0,0,0,0
2.928,0.625,0,0,0,0,0
2.929,0.625,0,0,0,0,0
2.93,0.3125,0,0,0,0,0
2.931,0.625,0,0,0,0,0
2.932,0.625,0,0,0,0,0
2.933,0.625,0,0,0,0,0
2.934,0.625,0,0,0,0,0
2.935,0.625,0,0,0,0,0
2.936,0.3125,0,0,0,0,0
2.937,0,0,0,0,0,0
2.938,0,0,0,0,0,0
2.939,0,0,0,0,0,0
2.94,0.3125,0,0,0,0,0
2.941,0.625,0,0,0,0,0
2.942,0.3125,0,0,0,0,0
2.943,0,0,0,0,0,0
2.944,0,0,0,0,0,0
2.945,-0.625,0,0,0,0,0
2.946,0,0,0,0,0,0
2.947,0,0,0,0,0,0
2.948,0,0,0,0,0,0
2.949,0,0,0,0,0,0
2.95,0,0,0,0,0,0
2.951,0,0,0,0,0,0
2.952,0,0,0,0,0,0
2.953,0,0,0,0,0,0
2.954,0,0,0,0,0,0
2.955,0,0,0,0,0,0
2.956,0,0,0,0,0,0
2.957,0,0,0,0,0,0
2.958,0,0,0,0,0,0
2.959,0,0,0,0,0,0
2.96,0,0,0,0,0,0
2.961,0,0,0,0,0,0
2.962,0.3125,0,0,0,0,0
2.963,0.625,0,0,0,0,0
2.964,0.625,0,0,0,0,0
2.965,0.625,0,0,0,0,0
2.966,0.3125,0,0,0,0,0
2.967,0.625,0,0,0,0,0
2.968,0.625,0,0,0,0,0
2.969,0,0,0,0,0,0
2.97,0,0,0,0,0,0
2.971,0,0,0,0,0,0
2.972,0,0,0,0,0,0
2.973,0,0,0,0,0,0
2.974,0,0,0,0,0,0
2.975,0,0,0,0,0,0
2.976,-0.9375,0,0,0,0,0
2.977,-0.625,0,0,0,0,0
2.978,-0.3125,0,0,0,0,0
2.979,0,0,0,0,0,0
2.98,-0.625,0,0,0,0,0
2.981,-0.625,0,0,0,0,0
2.982,-0.625,0,0,0,0,0
2.983,-0.625,0,0,0,0,0
2.984,-0.625,0,0,0,0,0
2.985,-0.625,0,0,0,0,0
2.986,0,0,0,0,0,0
2.987,0.625,0,0,0,0,0
2.988,0.625,0,0,0,0,0
2.989,0.625,0,0,0,0,0
2.99,0.3125,0,0,0,0,0
2.991,0.625,0,0,0,0,0
2.992,0.3125,0,0,0,0,0
2.993,0.625,1,0,0,0,0
2.994,1.25,0,0,0,0,0
2.995,1.875,0,0,0,0,0
2.996,1.5625,0,0,0,0,0
2.997,1.25,0,0,0,0,0
2.998,1.875,0,0,0,0,0
2.999,2.5,0,0,0,0,0
3,2.1875,0,0,0,0,0
3.001,2.5,0,0,0,0,0
3.002,2.8125,0,0,0,0,0
3.003,2.5,0,0,0,0,0
3.004,3.4375,0,0,0,0,0
3.005,3.75,0,0,0,0,0
3.006,4.375,0,0,0,0,0
3.007,5,0,0,0,0,0
3.008,5.3125,0,0,0,0,0
3.009,5.625,0,0,0,0,0
3.01,5.9375,0,0,0,0,0
3.011,6.25,0,0,0,0,0
3.012,7.5,0,0,0,0,0
3.013,8.75,0,0,0,0,0
3.014,9.375,0,0,0,0,0
3.015,10.625,0,0,0,0,0
3.016,11.563,0,0,0,0,0
3.017,12.5,0,0,0,0,0
3.018,15,0,0,0,0,0
3.019,17.5,0,0,0,0,0
3.02,19.688,0,0,0,0,0
3.021,21.875,0,0,0,0,0
3.022,24.063,0,0,0,0,0
3.023,26.875,0,0,0,0,0
3.024,29.688,0,0,0,0,0
3.025,31.875,0,0,0,0,0
3.026,35,0,0,0,0,0
3.027,39.375,0,0,0,0,0
3.028,43.75,0,0,0,0,0
3.029,48.125,0,0,0,0,0
3.03,53.125,0,0,0,0,0
3.031,56.875,0,0,0,0,0
3.032,60.938,0,0,0,0,0
3.033,65,0,0,0,0,0
3.034,69.688,0,0,0,0,0
3.035,74.375,0,0,0,0,0
3.036,78.125,0,0,0,0,0
3.037,81.25,0,0,0,0,0
3.038,85.313,0,0,0,0,0
3.039,88.75,0,0,0,0,0
3.04,91.563,0,0,0,0,0
3.041,93.75,0,0,0,0,0
3.042,93.125,0,1,0,0,0
3.043,93.125,0,0,0,0,0
3.044,92.813,0,0,0,0,0
3.045,92.5,0,0,0,0,0
3.046,93.125,0,0,0,0,0
3.047,92.5,0,0,0,0,0
3.048,89.063,0,0,0,0,0
3.049,85,0,0,0,0,0
3.05,79.375,0,0,0,0,0
3.051,69.375,0,0,0,0,0
3.052,54.688,0,0,0,0,0
3.053,42.5,0,0,0,0,0
3.054,32.188,0,0,0,0,0
3.055,23.75,0,0,0,0,0
3.056,16.563,0,0,0,0,0
3.057,8.125,0,0,0,0,0
3.058,-2.8125,0,0,0,0,0
3.059,-14.375,0,0,0,0,0
3.06,-25.313,0,0,0,0,0
3.061,-33.75,0,0,0,0,0
3.062,-39.375,0,0,0,0,0
3.063,-43.125,0,0,0,0,0
3.064,-45.938,0,0,0,0,0
3.065,-47.5,0,0,0,0,0
3.066,-47.813,0,0,0,0,0
3.067,-46.875,0,0,0,0,0
3.068,-45.938,0,0,0,0,0
3.069,-45,0,0,0,0,0
3.07,-44.375,0,0,0,0,0
3.071,-43.125,0,0,0,0,0
3.072,-39.375,0,0,0,0,0
3.073,-35.625,0,0,0,0,0
3.074,-31.875,0,0,0,0,0
3.075,-28.75,0,0,0,0,0
3.076,-26.25,0,0,0,0,0
3.077,-23.75,0,0,0,0,0
3.078,-21.875,0,0,0,0,0
3.079,-19.375,0,0,0,0,0
3.08,-16.563,0,0,0,0,0
3.081,-13.75,0,0,0,0,0
3.082,-12.5,0,0,0,0,0
3.083,-11.25,0,0,0,0,0
3.084,-10.625,0,0,0,0,0
3.085,-10,0,0,0,0,0
3.086,-8.4375,0,0,0,0,0
3.087,-8.125,0,0,0,0,0
3.088,-7.8125,0,0,0,0,0
3.089,-7.5,0,0,0,0,0
3.09,-6.5625,0,0,0,0,0
3.091,-6.25,0,0,0,0,0
3.092,-5.625,0,0,0,0,0
3.093,-4.375,0,0,0,0,0
3.094,-3.75,0,0,1,0,0
3.095,-3.125,0,0,0,0,0
3.096,-3.4375,0,0,0,0,0
3.097,-3.75,0,0,0,0,0
3.098,-3.4375,0,0,0,0,0
3.099,-3.75,0,0,0,0,0
3.1,-3.125,0,0,0,0,0
3.101,-3.125,0,0,0,0,0
3.102,-2.8125,0,0,0,0,0
3.103,-1.875,0,0,0,0,0
3.104,-2.1875,0,0,0,0,0
3.105,-2.5,0,0,0,0,0
3.106,-2.1875,0,0,0,0,0
3.107,-1.875,0,0,0,0,0
3.108,-2.1875,0,0,0,0,0
3.109,-2.5,0,0,0,0,0
3.11,-2.1875,0,0,0,0,0
3.111,-1.875,0,0,0,0,0
3.112,-2.1875,0,0,0,0,0
3.113,-2.5,0,0,0,0,0
3.114,-2.1875,0,0,0,0,0
3.115,-1.25,0,0,0,0,0
3.116,-1.25,0,0,0,0,0
3.117,-1.875,0,0,0,0,0
3.118,-1.5625,0,0,0,0,0
3.119,-1.25,0,0,0,0,0
3.12,-1.5625,0,0,0,0,0
3.121,-1.875,0,0,0,0,0
3.122,-1.875,0,0,0,0,0
3.123,-1.875,0,0,0,0,0
3.124,-2.1875,0,0,0,0,0
3.125,-1.875,0,0,0,0,0
3.126,-1.875,0,0,0,0,0
3.127,-1.875,0,0,0,0,0
3.128,-1.25,0,0,0,0,0
3.129,-1.875,0,0,0,0,0
3.13,-2.1875,0,0,0,0,0
3.131,-1.875,0,0,0,0,0
3.132,-2.1875,0,0,0,0,0
3.133,-1.875,0,0,0,0,0
3.134,-1.25,0,0,0,0,0
3.135,-0.625,0,0,0,0,0
3.136,-0.625,0,0,0,0,0
3.137,-1.25,0,0,0,0,0
3.138,-0.625,0,0,0,0,0
3.139,0,0,0,0,0,0
3.14,0.3125,0,0,0,0,0
3.141,1.25,0,0,0,0,0
3.142,0.9375,0,0,0,0,0
3.143,0.625,0,0,0,0,0
3.144,0.625,0,0,0,0,0
3.145,0.625,0,0,0,0,0
3.146,-0.3125,0,0,0,0,0
3.147,0,0,0,0,0,0
3.148,0.3125,0,0,0,0,0
3.149,0.625,0,0,0,0,0
3.15,-0.3125,0,0,0,0,0
3.151,-0.625,0,0,0,0,0
3.152,0,0,0,0,0,0
3.153,0,0,0,0,0,0
3.154,0.3125,0,0,0,0,0
3.155,0.625,0,0,0,0,0
3.156,0,0,0,0,0,0
3.157,-0.625,0,0,0,0,0
3.158,-0.625,0,0,0,0,0
3.159,-1.25,0,0,0,0,0
3.16,-0.3125,0,0,0,0,0
3.161,-0.625,0,0,0,0,0
3.162,-0.625,0,0,0,0,0
3.163,-0.625,0,0,0,0,0
3.164,-0.9375,0,0,0,0,0
3.165,-1.25,0,0,0,0,0
3.166,-1.25,0,0,0,0,0
3.167,-1.25,0,0,0,0,0
3.168,-0.9375,0,0,0,0,0
3.169,-0.625,0,0,0,0,0
3.17,-0.625,0,0,0,0,0
3.171,-0.625,0,0,0,0,0
3.172,-0.625,0,0,0,0,0
3.173,-0.625,0,0,0,0,0
3.174,-0.3125,0,0,0,0,0
3.175,0,0,0,0,0,0
3.176,-0.3125,0,0,0,0,0
3.177,-0.625,0,0,0,0,0
3.178,-0.625,0,0,0,0,0
3.179,-0.625,0,0,0,0,0
3.18,0.3125,0,0,0,0,0
3.181,0.625,0,0,0,0,0
3.182,0,0,0,0,0,0
3.183,0,0,0,0,0,0
3.184,0,0,0,0,0,0
3.185,0,0,0,0,0,0
3.186,0,0,0,0,0,0
3.187,0,0,0,0,0,0
3.188,0,0,0,0,0,0
3.189,0,0,0,0,0,0
3.19,0,0,0,0,0,0
3.191,-0.625,0,0,0,0,0
3.192,0,0,0,0,0,0
3.193,0,0,0,0,0,0
3.194,-0.3125,0,0,0,0,0
3.195,-0.625,0,0,0,0,0
3.196,-0.625,0,0,0,0,0
3.197,0,0,0,0,0,0
3.198,-0.3125,0,0,0,0,0
3.199,-0.625,0,0,0,0,0
3.2,-0.625,0,0,0,0,0
3.201,-0.625,0,0,0,0,0
3.202,-0.3125,0,0,0,0,0
3.203,0,0,0,0,0,0
3.204,-0.9375,0,0,0,0,0
3.205,-0.625,0,0,0,0,0
3.206,-0.9375,0,0,0,0,0
3.207,0,0,0,0,0,0
3.208,-0.625,0,0,0,0,0
3.209,-0.625,0,0,0,0,0
3.21,-0.625,0,0,0,0,0
3.211,-0.625,0,0,0,0,0
3.212,-0.9375,0,0,0,0,0
3.213,-1.25,0,0,0,0,0
3.214,-1.25,0,0,0,0,0
3.215,-1.25,0,0,0,0,0
3.216,-1.25,0,0,0,0,0
3.217,-1.25,0,0,0,0,0
3.218,-0.9375,0,0,0,0,0
3.219,-0.625,0,0,0,0,0
3.22,-0.9375,0,0,0,0,0
3.221,-1.25,0,0,0,0,0
3.222,-0.9375,0,0,0,0,0
3.223,-0.625,0,0,0,0,0
3.224,-0.625,0,0,0,0,0
3.225,-0.625,0,0,0,0,0
3.226,-0.3125,0,0,0,0,0
3.227,0,0,0,0,0,0
3.228,-0.3125,0,0,0,0,0
3.229,-0.625,0,0,0,0,0
3.23,-0.625,0,0,0,0,0
3.231,-0.625,0,0,0,0,0
3.232,-0.625,0,0,0,0,0
3.233,-0.625,0,0,0,0,0
3.234,-0.9375,0,0,0,0,0
3.235,-1.25,0,0,0,0,0
3.236,-0.9375,0,0,0,0,0
3.237,-1.25,0,0,0,0,0
3.238,-0.625,0,0,0,0,0
3.239,-0.625,0,0,0,0,0
3.24,-0.625,0,0,0,0,0
3.241,-0.625,0,0,0,0,0
3.242,-1.25,0,0,0,0,0
3.243,-1.25,0,0,0,0,0
3.244,-0.9375,0,0,0,0,0
3.245,-1.25,0,0,0,0,0
3.246,-1.5625,0,0,0,0,0
3.247,-1.875,0,0,0,0,0
3.248,-1.25,0,0,0,0,0
3.249,0,0,0,0,0,0
3.25,-0.625,0,0,0,0,0
3.251,-0.625,0,0,0,0,0
3.252,-0.3125,0,0,0,0,0
3.253,0,0,0,0,0,0
3.254,-0.3125,0,0,0,0,0
3.255,-0.625,0,0,0,0,0
3.256,-0.3125,0,0,0,0,0
3.257,-0.625,0,0,0,0,0
3.258,-0.3125,0,0,0,0,0
3.259,0,0,0,0,0,0
3.26,0.3125,0,0,0,0,0
3.261,0.625,0,0,0,0,0
3.262,-0.3125,0,0,0,0,0
3.263,-0.625,0,0,0,0,0
3.264,-0.9375,0,0,0,0,0
3.265,-0.625,0,0,0,0,0
3.266,0,0,0,0,0,0
3.267,0,0,0,0,0,0
3.268,0,0,0,0,0,0
3.269,0,0,0,0,0,0
3.27,0.3125,0,0,0,0,0
3.271,0.625,0,0,0,0,0
3.272,0,0,0,0,0,0
3.273,-0.625,0,0,0,0,0
3.274,0,0,0,0,0,0
3.275,0,0,0,0,0,0
3.276,-0.3125,0,0,0,0,0
3.277,-0.625,0,0,0,0,0
3.278,-0.625,0,0,0,0,0
3.279,-0.625,0,0,0,0,0
3.28,-0.3125,0,0,0,0,0
3.281,0,0,0,0,0,0
3.282,0.625,0,0,0,0,0
3.283,0.625,0,0,0,0,0
3.284,-0.3125,0,0,0,0,0
3.285,0,0,0,0,0,0
3.286,0.625,0,0,0,0,0
3.287,1.25,0,0,0,0,0
3.288,1.25,0,0,0,0,0
3.289,1.25,0,0,0,0,0
3.29,1.25,0,0,0,0,0
3.291,1.25,0,0,0,0,0
3.292,1.25,0,0,0,0,0
3.293,1.25,0,0,0,0,0
3.294,1.25,0,0,0,0,0
3.295,1.25,0,0,0,0,0
3.296,0.9375,0,0,0,0,0
3.297,0.625,0,0,0,0,0
3.298,0.9375,0,0,0,0,0
3.299,1.25,0,0,0,0,0
3.3,1.25,0,0,0,0,0
3.301,1.25,0,0,0,0,0
3.302,1.25,0,0,0,0,0
3.303,1.25,0,0,0,0,0
3.304,1.25,0,0,0,0,0
3.305,1.25,0,0,0,0,0
3.306,1.25,0,0,0,0,0
3.307,1.25,0,0,0,0,0
3.308,1.25,0,0,0,0,0
3.309,1.25,0,0,0,0,0
3.31,1.25,0,0,0,0,0
3.311,1.25,0,0,0,0,0
3.312,1.25,0,0,0,0,0
3.313,1.25,0,0,0,0,0
3.314,1.5625,0,0,0,0,0
3.315,1.875,0,0,0,0,0
3.316,1.5625,0,0,0,0,0
3.317,0.625,0,0,0,0,0
3.318,0.3125,0,0,0,0,0
3.319,0,0,0,0,0,0
3.32,0,0,0,0,0,0
3.321,0,0,0,0,0,0
3.322,0.9375,0,0,0,0,0
3.323,0.625,0,0,0,0,0
3.324,0.3125,0,0,0,0,0
3.325,0.625,0,0,0,0,0
3.326,0.625,0,0,0,0,0
3.327,0.625,0,0,0,0,0
3.328,0.9375,0,0,0,0,0
3.329,0.625,0,0,0,0,0
3.33,0.9375,0,0,0,0,0
3.331,0.625,0,0,0,0,0
3.332,0.625,0,0,0,0,0
3.333,0.625,0,0,0,0,0
3.334,0.3125,0,0,0,0,0
3.335,0.625,0,0,0,0,0
3.336,0.3125,0,0,0,0,0
3.337,-0.625,0,0,0,0,0
3.338,0.3125,0,0,0,0,0
3.339,0,0,0,0,0,0
3.34,-0.3125,0,0,0,0,0
3.341,0,0,0,0,0,0
3.342,-0.9375,0,0,0,0,0
3.343,-0.625,0,0,0,0,0
3.344,-1.25,0,0,0,0,0
3.345,-0.625,0,0,0,0,0
3.346,-0.9375,0,0,0,0,0
3.347,-1.25,0,0,0,0,0
3.348,-0.625,0,0,0,0,0
3.349,-0.625,0,0,0,0,0
3.35,0.625,0,0,0,0,0
3.351,0.625,0,0,0,0,0
3.352,0,0,0,0,0,0
3.353,0,0,0,0,0,0
3.354,0,0,0,0,0,0
3.355,0,0,0,0,0,0
3.356,0.3125,0,0,0,0,0
3.357,0.625,0,0,0,0,0
3.358,-0.3125,0,0,0,0,0
3.359,-0.625,0,0,0,0,0
3.36,0,0,0,0,0,0
3.361,0,0,0,0,0,0
3.362,-0.3125,0,0,0,0,0
3.363,-0.625,0,0,0,0,0
3.364,-0.3125,0,0,0,0,0
3.365,-0.625,0,0,0,0,0
3.366,-0.9375,0,0,0,0,0
3.367,-1.25,0,0,0,0,0
3.368,-1.25,0,0,0,0,0
3.369,-0.625,0,0,0,0,0
3.37,-1.25,0,0,0,0,0
3.371,-1.25,0,0,0,0,0
3.372,-0.625,0,0,0,0,0
3.373,-0.625,0,0,0,0,0
3.374,-0.625,0,0,0,0,0
3.375,-0.625,0,0,0,0,0
3.376,-1.25,0,0,0,0,0
3.377,-1.25,0,0,0,0,0
3.378,-0.625,0,0,0,0,0
3.379,-0.625,0,0,0,0,0
3.38,-0.3125,0,0,0,0,0
3.381,0.625,0,0,0,0,0
3.382,0.625,0,0,0,0,0
3.383,0.625,0,0,0,0,0
3.384,0.9375,0,0,0,0,0
3.385,0.625,0,0,0,0,0
3.386,0.3125,0,0,0,0,0
3.387,0,0,0,0,0,0
3.388,0,0,0,0,0,0
3.389,0.625,0,0,0,0,0
3.39,1.25,0,0,0,0,0
3.391,1.25,0,0,0,0,0
3.392,0.3125,0,0,0,0,0
3.393,0.625,0,0,0,0,0
3.394,0.9375,0,0,0,0,0
3.395,0.625,0,0,0,0,0
3.396,0.9375,0,0,0,0,0
3.397,0.625,0,0,0,0,0
3.398,0.625,0,0,0,0,0
3.399,1.25,0,0,0,0,0
3.4,1.5625,0,0,0,0,0
3.401,1.875,0,0,0,0,0
3.402,2.8125,0,0,0,0,0
3.403,3.125,0,0,0,0,0
3.404,2.5,0,0,0,0,0
3.405,2.5,0,0,0,0,0
3.406,2.1875,0,0,0,0,0
3.407,2.5,0,0,0,0,0
3.408,2.5,0,0,0,0,0
3.409,2.5,0,0,0,0,0
3.41,2.1875,0,0,0,0,0
3.411,1.875,0,0,0,0,0
3.412,1.875,0,0,0,0,0
3.413,1.875,0,0,0,0,0
3.414,3.125,0,0,0,0,0
3.415,3.125,0,0,0,0,0
3.416,3.75,0,0,0,0,0
3.417,3.125,0,0,0,0,0
3.418,3.125,0,0,0,0,0
3.419,3.125,0,0,0,0,0
3.42,4.0625,0,0,0,0,0
3.421,3.75,0,0,0,0,0
3.422,4.375,0,0,0,0,0
3.423,4.375,0,0,0,0,0
3.424,4.375,0,0,0,0,0
3.425,4.375,0,0,0,0,0
3.426,5.3125,0,0,0,0,0
3.427,5.625,0,0,0,0,0
3.428,5.3125,0,0,0,0,0
3.429,5.625,0,0,0,0,0
3.43,5.3125,0,0,0,0,0
3.431,4.375,0,0,0,0,0
3.432,4.375,0,0,0,0,0
3.433,3.75,0,0,0,0,0
3.434,4.0625,0,0,0,0,0
3.435,3.75,0,0,0,0,0
3.436,3.75,0,0,0,0,0
3.437,3.75,0,0,0,0,0
3.438,3.75,0,0,0,0,0
3.439,3.75,0,0,0,0,0
3.44,3.75,0,0,0,0,0
3.441,4.375,0,0,0,0,0
3.442,4.375,0,0,0,0,0
3.443,4.375,0,0,0,0,0
3.444,4.6875,0,0,0,1,0
3.445,4.375,0,0,0,0,0
3.446,4.0625,0,0,0,0,0
3.447,3.75,0,0,0,0,0
3.448,3.75,0,0,0,0,0
3.449,3.75,0,0,0,0,0
3.45,4.0625,0,0,0,0,0
3.451,4.375,0,0,0,0,0
3.452,4.6875,0,0,0,0,0
3.453,5,0,0,0,0,0
3.454,5,0,0,0,0,0
3.455,5,0,0,0,0,0
3.456,5,0,0,0,0,0
3.457,4.375,0,0,0,0,0
3.458,4.0625,0,0,0,0,0
3.459,3.75,0,0,0,0,0
3.46,3.4375,0,0,0,0,0
3.461,3.125,0,0,0,0,0
3.462,2.8125,0,0,0,0,0
3.463,2.5,0,0,0,0,0
3.464,3.125,0,0,0,0,0
3.465,3.125,0,0,0,0,0
3.466,3.125,0,0,0,0,0
3.467,3.125,0,0,0,0,0
3.468,2.8125,0,0,0,0,0
3.469,2.5,0,0,0,0,0
3.47,2.5,0,0,0,0,0
3.471,2.5,0,0,0,0,0
3.472,2.5,0,0,0,0,0
3.473,2.5,0,0,0,0,0
3.474,3.4375,0,0,0,0,0
3.475,3.75,0,0,0,0,0
3.476,3.4375,0,0,0,0,0
3.477,3.125,0,0,0,0,0
3.478,3.125,0,0,0,0,0
3.479,2.5,0,0,0,0,0
3.48,3.125,0,0,0,0,0
3.481,2.5,0,0,0,0,0
3.482,3.75,0,0,0,0,0
3.483,3.75,0,0,0,0,0
3.484,3.75,0,0,0,0,0
3.485,3.75,0,0,0,0,0
3.486,3.4375,0,0,0,0,0
3.487,3.125,0,0,0,0,0
3.488,3.4375,0,0,0,0,0
3.489,3.75,0,0,0,0,0
3.49,3.4375,0,0,0,0,0
3.491,3.125,0,0,0,0,0
3.492,3.125,0,0,0,0,0
3.493,3.125,0,0,0,0,0
3.494,3.125,0,0,0,0,0
3.495,3.125,0,0,0,0,0
3.496,3.125,0,0,0,0,0
3.497,2.5,0,0,0,0,0
3.498,2.1875,0,0,0,0,0
3.499,1.875,0,0,0,0,0
3.5,2.8125,0,0,0,0,0
3.501,3.125,0,0,0,0,0
3.502,2.8125,0,0,0,0,0
3.503,2.5,0,0,0,0,0
3.504,2.5,0,0,0,0,0
3.505,2.5,0,0,0,0,0
3.506,2.8125,0,0,0,0,0
3.507,3.125,0,0,0,0,0
3.508,3.125,0,0,0,0,0
3.509,3.125,0,0,0,0,0
3.51,3.4375,0,0,0,0,0
3.511,3.125,0,0,0,0,0
3.512,3.125,0,0,0,0,0
3.513,3.125,0,0,0,0,0
3.514,3.125,0,0,0,0,0
3.515,3.125,0,0,0,0,0
3.516,2.8125,0,0,0,0,0
3.517,2.5,0,0,0,0,0
3.518,2.8125,0,0,0,0,0
3.519,3.125,0,0,0,0,0
3.52,3.125,0,0,0,0,0
3.521,3.125,0,0,0,0,0
3.522,2.8125,0,0,0,0,0
3.523,2.5,0,0,0,0,0
3.524,2.5,0,0,0,0,0
3.525,2.5,0,0,0,0,0
3.526,2.1875,0,0,0,0,0
3.527,1.875,0,0,0,0,0
3.528,2.1875,0,0,0,0,0
3.529,1.875,0,0,0,0,0
3.53,2.5,0,0,0,0,0
3.531,2.5,0,0,0,0,0
3.532,2.1875,0,0,0,0,0
3.533,1.875,0,0,0,0,0
3.534,2.1875,0,0,0,0,0
3.535,2.5,0,0,0,0,0
3.536,2.8125,0,0,0,0,0
3.537,3.125,0,0,0,0,0
3.538,3.125,0,0,0,0,0
3.539,3.125,0,0,0,0,0
3.54,3.125,0,0,0,0,0
3.541,3.125,0,0,0,0,0
3.542,3.125,0,0,0,0,0
3.543,3.125,0,0,0,0,0
3.544,3.4375,0,0,0,0,0
3.545,3.75,0,0,0,0,0
3.546,3.4375,0,0,0,0,0
3.547,3.75,0,0,0,0,0
3.548,3.75,0,0,0,0,0
3.549,3.75,0,0,0,0,0
3.55,3.125,0,0,0,0,0
3.551,3.125,0,0,0,0,0
3.552,2.8125,0,0,0,0,0
3.553,1.875,0,0,0,0,0
3.554,2.1875,0,0,0,0,0
3.555,1.25,0,0,0,0,0
3.556,1.5625,0,0,0,0,0
3.557,0.625,0,0,0,0,0
3.558,0.625,0,0,0,0,0
3.559,0.625,0,0,0,0,0
3.56,0.9375,0,0,0,0,0
3.561,1.25,0,0,0,0,0
3.562,0.9375,0,0,0,0,0
3.563,0.625,0,0,0,0,0
3.564,0.9375,0,0,0,0,0
3.565,1.25,0,0,0,0,0
3.566,0.9375,0,0,0,0,0
3.567,0.625,0,0,0,0,0
3.568,1.25,0,0,0,0,0
3.569,0.625,0,0,0,0,0
3.57,0.625,0,0,0,0,0
3.571,0.625,0,0,0,0,0
3.572,0.9375,0,0,0,0,0
3.573,1.25,0,0,0,0,0
3.574,1.5625,0,0,0,0,0
3.575,2.5,0,0,0,0,0
3.576,1.875,0,0,0,0,0
3.577,1.875,0,0,0,0,0
3.578,1.875,0,0,0,0,0
3.579,1.875,0,0,0,0,0
3.58,1.875,0,0,0,0,0
3.581,1.875,0,0,0,0,0
3.582,1.25,0,0,0,0,0
3.583,1.25,0,0,0,0,0
3.584,0.9375,0,0,0,0,0
3.585,0.625,0,0,0,0,0
3.586,0.625,0,0,0,0,0
3.587,0.625,0,0,0,0,0
3.588,1.5625,0,0,0,0,0
3.589,1.875,0,0,0,0,0
3.59,1.5625,0,0,0,0,0
3.591,1.25,0,0,0,0,0
3.592,0.9375,0,0,0,0,0
3.593,0.625,0,0,0,0,0
3.594,1.25,0,0,0,0,0
3.595,1.875,0,0,0,0,0
3.596,1.875,0,0,0,0,0
3.597,1.875,0,0,0,0,0
3.598,2.1875,0,0,0,0,0
3.599,2.5,0,0,0,0,0
3.6,2.8125,0,0,0,0,0
3.601,3.125,0,0,0,0,0
3.602,2.8125,0,0,0,0,0
3.603,3.125,0,0,0,0,0
3.604,2.8125,0,0,0,0,0
3.605,2.5,0,0,0,0,0
3.606,2.8125,0,0,0,0,0
3.607,3.125,0,0,0,0,0
3.608,2.8125,0,0,0,0,0
3.609,3.125,0,0,0,0,0
3.61,2.5,0,0,0,0,0
3.611,2.5,0,0,0,0,0
3.612,2.5,0,0,0,0,0
3.613,2.5,0,0,0,0,0
3.614,1.5625,0,0,0,0,0
3.615,1.875,0,0,0,0,0
3.616,1.5625,0,0,0,0,0
3.617,1.875,0,0,0,0,0
3.618,0.625,0,0,0,0,0
3.619,0.625,0,0,0,0,0
3.62,0.9375,0,0,0,0,0
3.621,1.25,0,0,0,0,0
3.622,0.625,0,0,0,0,0
3.623,0.625,0,0,0,0,0
3.624,0.625,0,0,0,0,0
3.625,0,0,0,0,0,0
3.626,0.9375,0,0,0,0,0
3.627,1.25,0,0,0,0,0
3.628,1.25,0,0,0,0,0
3.629,1.25,0,0,0,0,0
3.63,1.5625,0,0,0,0,0
3.631,1.875,0,0,0,0,0
3.632,1.5625,0,0,0,0,0
3.633,1.25,0,0,0,0,0
3.634,1.25,0,0,0,0,0
3.635,1.25,0,0,0,0,0
3.636,0.9375,0,0,0,0,0
3.637,0.625,0,0,0,0,1
3.638,1.25,0,0,0,0,0
3.639,1.25,0,0,0,0,0
3.64,0.9375,0,0,0,0,0
3.641,0.625,0,0,0,0,0
3.642,1.25,0,0,0,0,0
3.643,1.25,0,0,0,0,0
3.644,0.625,0,0,0,0,0
3.645,0.625,0,0,0,0,0
3.646,0.625,0,0,0,0,0
3.647,0.625,0,0,0,0,0
3.648,0.625,0,0,0,0,0
3.649,0.625,0,0,0,0,0
3.65,1.5625,0,0,0,0,0
3.651,1.25,0,0,0,0,0
3.652,1.25,0,0,0,0,0
3.653,1.25,0,0,0,0,0
3.654,0.625,0,0,0,0,0
3.655,1.25,0,0,0,0,0
3.656,1.5625,0,0,0,0,0
3.657,1.875,0,0,0,0,0
3.658,1.5625,0,0,0,0,0
3.659,0.625,0,0,0,0,0
3.66,0.625,0,0,0,0,0
3.661,0.625,0,0,0,0,0
3.662,0.625,0,0,0,0,0
3.663,0.625,0,0,0,0,0
3.664,0.625,0,0,0,0,0
3.665,0.625,0,0,0,0,0
3.666,0.3125,0,0,0,0,0
3.667,0.625,0,0,0,0,0
3.668,0.625,0,0,0,0,0
3.669,0.625,0,0,0,0,0
3.67,0.9375,0,0,0,0,0
3.671,1.25,0,0,0,0,0
3.672,1.25,0,0,0,0,0
3.673,1.25,0,0,0,0,0
3.674,1.5625,0,0,0,0,0
3.675,1.875,0,0,0,0,0
3.676,0.9375,0,0,0,0,0
3.677,1.25,0,0,0,0,0
3.678,0.3125,0,0,0,0,0
3.679,0.625,0,0,0,0,0
3.68,0.9375,0,0,0,0,0
3.681,1.25,0,0,0,0,0
3.682,0.9375,0,0,0,0,0
3.683,0.625,0,0,0,0,0
3.684,0.9375,0,0,0,0,0
3.685,0.625,0,0,0,0,0
3.686,0.3125,0,0,0,0,0
3.687,0,0,0,0,0,0
3.688,0.9375,0,0,0,0,0
3.689,1.25,0,0,0,0,0
3.69,0.625,0,0,0,0,0
3.691,1.25,0,0,0,0,0
3.692,1.25,0,0,0,0,0
3.693,1.25,0,0,0,0,0
3.694,0.9375,0,0,0,0,0
3.695,0.625,0,0,0,0,0
3.696,0.3125,0,0,0,0,0
3.697,0,0,0,0,0,0
3.698,0,0,0,0,0,0
3.699,0,0,0,0,0,0
3.7,-0.3125,0,0,0,0,0
3.701,-0.625,0,0,0,0,0
3.702,-0.625,0,0,0,0,0
3.703,-1.25,0,0,0,0,0
3.704,-0.625,0,0,0,0,0
3.705,-0.625,0,0,0,0,0
3.706,-0.3125,0,0,0,0,0
3.707,0,0,0,0,0,0
3.708,-0.625,0,0,0,0,0
3.709,-0.625,0,0,0,0,0
3.71,0.3125,0,0,0,0,0
3.711,0.625,0,0,0,0,0
3.712,0,0,0,0,0,0
3.713,0,0,0,0,0,0
3.714,0.625,0,0,0,0,0
3.715,0.625,0,0,0,0,0
3.716,0,0,0,0,0,0
3.717,0,0,0,0,0,0
3.718,0,0,0,0,0,0
3.719,0,0,0,0,0,0
3.72,-0.3125,0,0,0,0,0
3.721,-0.625,0,0,0,0,0
3.722,-0.3125,0,0,0,0,0
3.723,0.625,0,0,0,0,0
3.724,0.625,0,0,0,0,0
3.725,0.625,0,0,0,0,0
3.726,0.625,0,0,0,0,0
3.727,0.625,0,0,0,0,0
3.728,0,0,0,0,0,0
3.729,0,0,0,0,0,0
3.73,0.3125,0,0,0,0,0
3.731,0.625,0,0,0,0,0
3.732,-0.3125,0,0,0,0,0
3.733,0,0,0,0,0,0
3.734,0.625,0,0,0,0,0
3.735,1.25,0,0,0,0,0
3.736,0.9375,0,0,0,0,0
3.737,0.625,0,0,0,0,0
3.738,0.625,0,0,0,0,0
3.739,0.625,0,0,0,0,0
3.74,0.3125,0,0,0,0,0
3.741,0.625,0,0,0,0,0
3.742,0.625,0,0,0,0,0
3.743,0.625,0,0,0,0,0
3.744,0,0,0,0,0,0
3.745,0,0,0,0,0,0
3.746,1.5625,0,0,0,0,0
3.747,2.5,0,0,0,0,0
3.748,2.5,0,0,0,0,0
3.749,2.5,0,0,0,0,0
3.75,1.875,0,0,0,0,0
3.751,0.625,0,0,0,0,0
3.752,0.625,0,0,0,0,0
3.753,-0.625,0,0,0,0,0
3.754,-0.625,0,0,0,0,0
3.755,0,0,0,0,0,0
3.756,-0.625,0,0,0,0,0
3.757,-0.625,0,0,0,0,0
3.758,-0.3125,0,0,0,0,0
3.759,0,0,0,0,0,0
3.76,0.3125,0,0,0,0,0
3.761,0.625,0,0,0,0,0
3.762,0,0,0,0,0,0
3.763,0.625,0,0,0,0,0
3.764,0.3125,0,0,0,0,0
3.765,0,0,0,0,0,0
3.766,-1.25,0,0,0,0,0
3.767,-1.875,0,0,0,0,0
3.768,-1.25,0,0,0,0,0
3.769,-1.875,0,0,0,0,0
3.77,-1.5625,0,0,0,0,0
3.771,-1.25,0,0,0,0,0
3.772,-0.9375,0,0,0,0,0
3.773,-0.625,0,0,0,0,0
3.774,-0.625,0,0,0,0,0
3.775,-0.625,0,0,0,0,0
3.776,-0.3125,0,0,0,0,0
3.777,0,0,0,0,0,0
3.778,0.625,0,0,0,0,0
3.779,1.25,0,0,0,0,0
3.78,1.5625,0,0,0,0,0
3.781,1.25,0,0,0,0,0
3.782,0.3125,0,0,0,0,0
3.783,-0.625,0,0,0,0,0
3.784,-0.9375,0,0,0,0,0
3.785,-1.25,0,0,0,0,0
3.786,-1.5625,0,0,0,0,0
3.787,-1.875,0,0,0,0,0
3.788,-1.5625,0,0,0,0,0
3.789,-1.25,0,0,0,0,0
3.79,-1.25,0,0,0,0,0
3.791,-1.25,0,0,0,0,0
3.792,-0.9375,0,0,0,0,0
3.793,-1.25,0,0,0,0,0
3.794,-0.3125,0,0,0,0,0
3.795,0,0,0,0,0,0
3.796,0,0,0,0,0,0
3.797,-0.625,0,0,0,0,0
3.798,0,0,0,0,0,0
3.799,0,0,0,0,0,0
3.8,-0.3125,0,0,0,0,0
3.801,0,0,0,0,0,0
3.802,0,0,0,0,0,0
3.803,0,0,0,0,0,0
3.804,0,0,0,0,0,0
3.805,0,0,0,0,0,0
3.806,0,0,0,0,0,0
3.807,-0.625,0,0,0,0,0
3.808,0,0,0,0,0,0
3.809,0.625,0,0,0,0,0
3.81,0,0,0,0,0,0
3.811,0.625,0,0,0,0,0
3.812,0,0,0,0,0,0
3.813,0,0,0,0,0,0
3.814,0.3125,0,0,0,0,0
3.815,0.625,0,0,0,0,0
3.816,0.9375,0,0,0,0,0
3.817,1.25,0,0,0,0,0
3.818,0.9375,0,0,0,0,0
3.819,0.625,0,0,0,0,0
3.82,0.3125,0,0,0,0,0
3.821,0,0,0,0,0,0
3.822,0.3125,0,0,0,0,0
3.823,0.625,0,0,0,0,0
3.824,0.3125,0,0,0,0,0
3.825,0,0,0,0,0,0
3.826,-0.3125,0,0,0,0,0
3.827,-0.625,0,0,0,0,0
3.828,-0.625,0,0,0,0,0
3.829,-0.625,0,0,0,0,0
3.83,-0.625,0,0,0,0,0
3.831,-1.25,0,0,0,0,0
3.832,-0.9375,0,0,0,0,0
3.833,-1.25,0,0,0,0,0
3.834,-1.5625,0,0,0,0,0
3.835,-1.875,0,0,0,0,0
3.836,-0.9375,0,0,0,0,0
3.837,-0.625,0,0,0,0,0
3.838,-0.3125,0,0,0,0,0
3.839,0,0,0,0,0,0
3.84,-0.3125,0,0,0,0,0
3.841,-0.625,0,0,0,0,0
3.842,-0.625,0,0,0,0,0
3.843,-1.25,0,0,0,0,0
3.844,-0.9375,0,0,0,0,0
3.845,-1.25,0,0,0,0,0
3.846,-1.25,0,0,0,0,0
3.847,-1.25,0,0,0,0,0
3.848,-1.875,0,0,0,0,0
3.849,-1.875,0,0,0,0,0
3.85,-0.9375,0,0,0,0,0
3.851,-1.25,0,0,0,0,0
3.852,-0.9375,0,0,0,0,0
3.853,0,0,0,0,0,0
3.854,0.625,0,0,0,0,0
3.855,0.625,0,0,0,0,0
3.856,0.3125,0,0,0,0,0
3.857,0,0,0,0,0,0
3.858,0,0,0,0,0,0
3.859,0,0,0,0,0,0
3.86,0.625,0,0,0,0,0
3.861,1.25,0,0,0,0,0
3.862,1.5625,0,0,0,0,0
3.863,1.875,0,0,0,0,0
3.864,1.5625,0,0,0,0,0
3.865,1.25,0,0,0,0,0
3.866,1.25,0,0,0,0,0
3.867,1.875,0,0,0,0,0
3.868,1.875,0,0,0,0,0
3.869,1.875,0,0,0,0,0
3.87,1.5625,0,0,0,0,0
3.871,1.25,0,0,0,0,0
3.872,1.5625,0,0,0,0,0
3.873,1.875,0,0,0,0,0
3.874,2.1875,0,0,0,0,0
3.875,1.875,0,0,0,0,0
3.876,1.875,0,0,0,0,0
3.877,1.875,0,0,0,0,0
3.878,1.5625,0,0,0,0,0
3.879,1.875,0,0,0,0,0
3.88,2.1875,0,0,0,0,0
3.881,1.875,0,0,0,0,0
3.882,1.875,0,0,0,0,0
3.883,1.875,0,0,0,0,0
3.884,1.875,0,0,0,0,0
3.885,1.875,0,0,0,0,0
3.886,1.5625,0,0,0,0,0
3.887,1.25,0,0,0,0,0
3.888,0.9375,0,0,0,0,0
3.889,0.625,0,0,0,0,0
3.89,0.3125,0,0,0,0,0
3.891,0.625,0,0,0,0,0
3.892,0.9375,0,0,0,0,0
3.893,1.25,0,0,0,0,0
3.894,1.25,0,0,0,0,0
3.895,1.25,0,0,0,0,0
3.896,1.25,0,0,0,0,0
3.897,1.25,0,0,0,0,0
3.898,0.625,0,0,0,0,0
3.899,0.625,0,0,0,0,0
3.9,1.5625,0,0,0,0,0
3.901,1.875,0,0,0,0,0
3.902,2.1875,0,0,0,0,0
3.903,2.5,0,0,0,0,0
3.904,3.125,0,0,0,0,0
3.905,3.125,0,0,0,0,0
3.906,3.125,0,0,0,0,0
3.907,3.125,0,0,0,0,0
3.908,2.8125,0,0,0,0,0
3.909,2.5,0,0,0,0,0
3.91,3.4375,0,0,0,0,0
3.911,3.125,0,0,0,0,0
3.912,2.8125,0,0,0,0,0
3.913,2.5,0,0,0,0,0
3.914,2.5,0,0,0,0,0
3.915,2.5,0,0,0,0,0
3.916,2.1875,0,0,0,0,0
3.917,2.5,0,0,0,0,0
3.918,1.875,0,0,0,0,0
3.919,2.5,0,0,0,0,0
3.92,2.8125,0,0,0,0,0
3.921,2.5,0,0,0,0,0
3.922,1.875,0,0,0,0,0
3.923,1.875,0,0,0,0,0
3.924,1.875,0,0,0,0,0
3.925,1.25,0,0,0,0,0
3.926,1.25,0,0,0,0,0
3.927,1.25,0,0,0,0,0
3.928,1.5625,0,0,0,0,0
3.929,1.25,0,0,0,0,0
3.93,1.25,0,0,0,0,0
3.931,1.25,0,0,0,0,0
3.932,0.9375,0,0,0,0,0
3.933,1.25,0,0,0,0,0
3.934,1.25,0,0,0,0,0
3.935,1.25,0,0,0,0,0
3.936,1.25,0,0,0,0,0
3.937,0.625,0,0,0,0,0
3.938,0,0,0,0,0,0
3.939,0,0,0,0,0,0
3.94,0.625,0,0,0,0,0
3.941,0.625,0,0,0,0,0
3.942,-0.3125,0,0,0,0,0
3.943,-0.625,0,0,0,0,0
3.944,-0.625,0,0,0,0,0
3.945,-0.625,0,0,0,0,0
3.946,-0.9375,0,0,0,0,0
3.947,-1.25,0,0,0,0,0
3.948,-1.25,0,0,0,0,0
3.949,-1.25,0,0,0,0,0
3.95,-0.625,0,0,0,0,0
3.951,0,0,0,0,0,0
3.952,0.625,0,0,0,0,0
3.953,0.625,0,0,0,0,0
3.954,0.625,0,0,0,0,0
3.955,0.625,0,0,0,0,0
3.956,0.625,0,0,0,0,0
3.957,0.625,0,0,0,0,0
3.958,0,0,0,0,0,0
3.959,0,0,0,0,0,0
3.96,0,0,0,0,0,0
3.961,0.625,0,0,0,0,0
3.962,0,0,0,0,0,0
3.963,0.625,0,0,0,0,0
3.964,0,0,0,0,0,0
3.965,0,0,0,0,0,0
3.966,0.3125,0,0,0,0,0
3.967,0,0,0,0,0,0
3.968,0,0,0,0,0,0
3.969,-0.625,0,0,0,0,0
3.97,-0.625,0,0,0,0,0
3.971,-0.625,0,0,0,0,0
3.972,-0.9375,0,0,0,0,0
3.973,-0.625,0,0,0,0,0
3.974,0,0,0,0,0,0
3.975,-0.625,0,0,0,0,0
3.976,-0.625,0,0,0,0,0
3.977,-1.25,0,0,0,0,0
3.978,-1.5625,0,0,0,0,0
3.979,-1.875,0,0,0,0,0
3.98,-1.875,0,0,0,0,0
3.981,-1.875,0,0,0,0,0
3.982,-1.5625,0,0,0,0,0
3.983,-1.25,0,0,0,0,0
3.984,-1.25,0,0,0,0,0
3.985,-1.25,0,0,0,0,0
3.986,-0.9375,0,0,0,0,0
3.987,-0.625,0,0,0,0,0
3.988,-0.625,0,0,0,0,0
3.989,-0.625,0,0,0,0,0
3.99,-0.625,0,0,0,0,0
3.991,-0.625,0,0,0,0,0
3.992,-1.25,0,0,0,0,0
3.993,-0.625,0,0,0,0,0
3.994,-0.3125,0,0,0,0,0
3.995,0,0,0,0,0,0
3.996,-0.3125,0,0,0,0,0
3.997,-0.625,0,0,0,0,0
3.998,-0.3125,0,0,0,0,0
3.999,0,0,0,0,0,0
4,0.3125,0,0,0,0,0
4.001,0.625,0,0,0,0,0
4.002,0.3125,0,0,0,0,0
4.003,0,0,0,0,0,0
4.004,-0.3125,0,0,0,0,0
4.005,-0.625,0,0,0,0,0
4.006,-0.625,0,0,0,0,0
4.007,-0.625,0,0,0,0,0
4.008,-0.9375,0,0,0,0,0
4.009,-1.25,0,0,0,0,0
4.01,-1.5625,0,0,0,0,0
4.011,-1.875,0,0,0,0,0
4.012,-2.1875,0,0,0,0,0
4.013,-2.5,0,0,0,0,0
4.014,-1.875,0,0,0,0,0
4.015,-1.875,0,0,0,0,0
4.016,-2.5,0,0,0,0,0
4.017,-2.5,0,0,0,0,0
4.018,-2.1875,0,0,0,0,0
4.019,-1.875,0,0,0,0,0
4.02,-1.875,0,0,0,0,0
4.021,-1.875,0,0,0,0,0
4.022,-1.5625,0,0,0,0,0
4.023,-1.875,0,0,0,0,0
4.024,-1.875,0,0,0,0,0
4.025,-2.5,0,0,0,0,0
4.026,-1.875,0,0,0,0,0
4.027,-1.25,0,0,0,0,0
4.028,-0.625,0,0,0,0,0
4.029,-0.625,0,0,0,0,0
4.03,-0.625,0,0,0,0,0
4.031,-0.625,0,0,0,0,0
4.032,0,0,0,0,0,0
4.033,0.625,0,0,0,0,0
4.034,0.3125,0,0,0,0,0
4.035,0,0,0,0,0,0
4.036,-0.3125,0,0,0,0,0
4.037,-0.625,0,0,0,0,0
4.038,-0.625,0,0,0,0,0
4.039,-1.25,0,0,0,0,0
4.04,-0.9375,0,0,0,0,0
4.041,-1.25,0,0,0,0,0
4.042,-0.9375,0,0,0,0,0
4.043,-0.625,0,0,0,0,0
4.044,-0.9375,1,0,0,0,0
4.045,-0.625,0,0,0,0,0
4.046,0,0,0,0,0,0
4.047,0,0,0,0,0,0
4.048,0.9375,0,0,0,0,0
4.049,1.875,0,0,0,0,0
4.05,1.875,0,0,0,0,0
4.051,2.5,0,0,0,0,0
4.052,2.1875,0,0,0,0,0
4.053,2.5,0,0,0,0,0
4.054,2.8125,0,0,0,0,0
4.055,3.125,0,0,0,0,0
4.056,3.4375,0,0,0,0,0
4.057,3.75,0,0,0,0,0
4.058,4.0625,0,0,0,0,0
4.059,5,0,0,0,0,0
4.06,6.875,0,0,0,0,0
4.061,8.125,0,0,0,0,0
4.062,9.0625,0,0,0,0,0
4.063,10,0,0,0,0,0
4.064,11.25,0,0,0,0,0
4.065,13.125,0,0,0,0,0
4.066,14.688,0,0,0,0,0
4.067,16.875,0,0,0,0,0
4.068,19.688,0,0,0,0,0
4.069,22.5,0,0,0,0,0
4.07,25.625,0,0,0,0,0
4.071,28.75,0,0,0,0,0
4.072,30.938,0,0,0,0,0
4.073,34.375,0,0,0,0,0
4.074,40.625,0,0,0,0,0
4.075,46.25,0,0,0,0,0
4.076,50.625,0,0,0,0,0
4.077,55.625,0,0,0,0,0
4.078,59.375,0,0,0,0,0
4.079,63.75,0,0,0,0,0
4.08,68.125,0,0,0,0,0
4.081,73.125,0,0,0,0,0
4.082,77.5,0,0,0,0,0
4.083,80.625,0,0,0,0,0
4.084,82.813,0,0,0,0,0
4.085,85.625,0,0,0,0,0
4.086,89.688,0,0,0,0,0
4.087,92.5,0,0,0,0,0
4.088,94.375,0,0,0,0,0
4.089,94.375,0,1,0,0,0
4.09,94.063,0,0,0,0,0
4.091,93.75,0,0,0,0,0
4.092,94.063,0,0,0,0,0
4.093,93.125,0,0,0,0,0
4.094,90.625,0,0,0,0,0
4.095,85.625,0,0,0,0,0
4.096,79.688,0,0,0,0,0
4.097,71.875,0,0,0,0,0
4.098,59.375,0,0,0,0,0
4.099,45,0,0,0,0,0
4.1,33.75,0,0,0,0,0
4.101,23.75,0,0,0,0,0
4.102,15,0,0,0,0,0
4.103,6.25,0,0,0,0,0
4.104,-4.375,0,0,0,0,0
4.105,-16.25,0,0,0,0,0
4.106,-27.5,0,0,0,0,0
4.107,-37.5,0,0,0,0,0
4.108,-45,0,0,0,0,0
4.109,-50,0,0,0,0,0
4.11,-51.875,0,0,0,0,0
4.111,-53.125,0,0,0,0,0
4.112,-54.688,0,0,0,0,0
4.113,-54.375,0,0,0,0,0
4.114,-52.188,0,0,0,0,0
4.115,-50.625,0,0,0,0,0
4.116,-49.688,0,0,0,0,0
4.117,-48.125,0,0,0,0,0
4.118,-45.625,0,0,0,0,0
4.119,-42.5,0,0,0,0,0
4.12,-38.438,0,0,0,0,0
4.121,-34.375,0,0,0,0,0
4.122,-31.563,0,0,0,0,0
4.123,-28.75,0,0,0,0,0
4.124,-26.25,0,0,0,0,0
4.125,-24.375,0,0,0,0,0
4.126,-21.875,0,0,0,0,0
4.127,-20,0,0,0,0,0
4.128,-18.125,0,0,0,0,0
4.129,-16.875,0,0,0,0,0
4.13,-15.313,0,0,0,0,0
4.131,-14.375,0,0,0,0,0
4.132,-13.75,0,0,0,0,0
4.133,-11.875,0,0,0,0,0
4.134,-10.313,0,0,0,0,0
4.135,-8.75,0,0,0,0,0
4.136,-8.4375,0,0,0,0,0
4.137,-7.5,0,0,0,0,0
4.138,-7.1875,0,0,0,0,0
4.139,-6.875,0,0,0,0,0
4.14,-5.9375,0,0,0,0,0
4.141,-5.625,0,0,1,0,0
4.142,-5,0,0,0,0,0
4.143,-5,0,0,0,0,0
4.144,-4.6875,0,0,0,0,0
4.145,-4.375,0,0,0,0,0
4.146,-5,0,0,0,0,0
4.147,-4.375,0,0,0,0,0
4.148,-4.6875,0,0,0,0,0
4.149,-5,0,0,0,0,0
4.15,-4.375,0,0,0,0,0
4.151,-4.375,0,0,0,0,0
4.152,-4.375,0,0,0,0,0
4.153,-4.375,0,0,0,0,0
4.154,-4.0625,0,0,0,0,0
4.155,-3.75,0,0,0,0,0
4.156,-3.75,0,0,0,0,0
4.157,-3.75,0,0,0,0,0
4.158,-3.75,0,0,0,0,0
4.159,-3.75,0,0,0,0,0
4.16,-3.75,0,0,0,0,0
4.161,-3.75,0,0,0,0,0
4.162,-2.8125,0,0,0,0,0
4.163,-2.5,0,0,0,0,0
4.164,-2.8125,0,0,0,0,0
4.165,-2.5,0,0,0,0,0
4.166,-2.5,0,0,0,0,0
4.167,-2.5,0,0,0,0,0
4.168,-2.5,0,0,0,0,0
4.169,-2.5,0,0,0,0,0
4.17,-2.8125,0,0,0,0,0
4.171,-3.125,0,0,0,0,0
4.172,-2.1875,0,0,0,0,0
4.173,-1.875,0,0,0,0,0
4.174,-1.25,0,0,0,0,0
4.175,0,0,0,0,0,0
4.176,0,0,0,0,0,0
4.177,0,0,0,0,0,0
4.178,-0.3125,0,0,0,0,0
4.179,-0.625,0,0,0,0,0
4.18,-0.9375,0,0,0,0,0
4.181,-1.875,0,0,0,0,0
4.182,-2.5,0,0,0,0,0
4.183,-3.125,0,0,0,0,0
4.184,-3.75,0,0,0,0,0
4.185,-3.75,0,0,0,0,0
4.186,-4.0625,0,0,0,0,0
4.187,-4.375,0,0,0,0,0
4.188,-3.75,0,0,0,0,0
4.189,-3.75,0,0,0,0,0
4.19,-4.0625,0,0,0,0,0
4.191,-4.375,0,0,0,0,0
4.192,-4.0625,0,0,0,0,0
4.193,-4.375,0,0,0,0,0
4.194,-3.4375,0,0,0,0,0
4.195,-3.125,0,0,0,0,0
4.196,-3.125,0,0,0,0,0
4.197,-3.75,0,0,0,0,0
4.198,-3.4375,0,0,0,0,0
4.199,-2.5,0,0,0,0,0
4.2,-2.5,0,0,0,0,0
4.201,-2.5,0,0,0,0,0
4.202,-2.1875,0,0,0,0,0
4.203,-1.875,0,0,0,0,0
4.204,-1.5625,0,0,0,0,0
4.205,-1.25,0,0,0,0,0
4.206,-1.875,0,0,0,0,0
4.207,-1.25,0,0,0,0,0
4.208,-1.5625,0,0,0,0,0
4.209,-1.25,0,0,0,0,0
4.21,-1.5625,0,0,0,0,0
4.211,-1.875,0,0,0,0,0
4.212,-1.5625,0,0,0,0,0
4.213,-1.25,0,0,0,0,0
4.214,-1.25,0,0,0,0,0
4.215,-1.25,0,0,0,0,0
4.216,-1.875,0,0,0,0,0
4.217,-2.5,0,0,0,0,0
4.218,-2.8125,0,0,0,0,0
4.219,-3.125,0,0,0,0,0
4.22,-2.8125,0,0,0,0,0
4.221,-2.5,0,0,0,0,0
4.222,-2.1875,0,0,0,0,0
4.223,-1.875,0,0,0,0,0
4.224,-1.875,0,0,0,0,0
4.225,-1.875,0,0,0,0,0
4.226,-2.5,0,0,0,0,0
4.227,-2.5,0,0,0,0,0
4.228,-2.1875,0,0,0,0,0
4.229,-2.5,0,0,0,0,0
4.23,-2.5,0,0,0,0,0
4.231,-2.5,0,0,0,0,0
4.232,-2.8125,0,0,0,0,0
4.233,-3.125,0,0,0,0,0
4.234,-3.4375,0,0,0,0,0
4.235,-3.75,0,0,0,0,0
4.236,-3.4375,0,0,0,0,0
4.237,-3.125,0,0,0,0,0
4.238,-3.75,0,0,0,0,0
4.239,-3.125,0,0,0,0,0
4.24,-2.8125,0,0,0,0,0
4.241,-2.5,0,0,0,0,0
4.242,-2.8125,0,0,0,0,0
4.243,-3.125,0,0,0,0,0
4.244,-2.8125,0,0,0,0,0
4.245,-3.125,0,0,0,0,0
4.246,-2.8125,0,0,0,0,0
4.247,-2.5,0,0,0,0,0
4.248,-2.5,0,0,0,0,0
4.249,-2.5,0,0,0,0,0
4.25,-2.8125,0,0,0,0,0
4.251,-3.75,0,0,0,0,0
4.252,-3.125,0,0,0,0,0
4.253,-3.75,0,0,0,0,0
4.254,-3.125,0,0,0,0,0
4.255,-3.75,0,0,0,0,0
4.256,-4.0625,0,0,0,0,0
4.257,-4.375,0,0,0,0,0
4.258,-4.375,0,0,0,0,0
4.259,-4.375,0,0,0,0,0
4.26,-4.0625,0,0,0,0,0
4.261,-3.75,0,0,0,0,0
4.262,-4.0625,0,0,0,0,0
4.263,-4.375,0,0,0,0,0
4.264,-4.6875,0,0,0,0,0
4.265,-5,0,0,0,0,0
4.266,-4.6875,0,0,0,0,0
4.267,-4.375,0,0,0,0,0
4.268,-4.375,0,0,0,0,0
4.269,-4.375,0,0,0,0,0
4.27,-3.75,0,0,0,0,0
4.271,-3.125,0,0,0,0,0
4.272,-3.125,0,0,0,0,0
4.273,-3.125,0,0,0,0,0
4.274,-3.4375,0,0,0,0,0
4.275,-3.75,0,0,0,0,0
4.276,-3.4375,0,0,0,0,0
4.277,-3.125,0,0,0,0,0
4.278,-3.4375,0,0,0,0,0
4.279,-3.75,0,0,0,0,0
4.28,-3.75,0,0,0,0,0
4.281,-3.75,0,0,0,0,0
4.282,-3.75,0,0,0,0,0
4.283,-3.75,0,0,0,0,0
4.284,-4.6875,0,0,0,0,0
4.285,-4.375,0,0,0,0,0
4.286,-4.6875,0,0,0,0,0
4.287,-5,0,0,0,0,0
4.288,-5,0,0,0,0,0
4.289,-5,0,0,0,0,0
4.29,-4.375,0,0,0,0,0
4.291,-4.375,0,0,0,0,0
4.292,-5,0,0,0,0,0
4.293,-5,0,0,0,0,0
4.294,-4.6875,0,0,0,0,0
4.295,-4.375,0,0,0,0,0
4.296,-3.4375,0,0,0,0,0
4.297,-3.75,0,0,0,0,0
4.298,-3.75,0,0,0,0,0
4.299,-3.75,0,0,0,0,0
4.3,-3.75,0,0,0,0,0
4.301,-3.75,0,0,0,0,0
4.302,-4.0625,0,0,0,0,0
4.303,-3.75,0,0,0,0,0
4.304,-4.0625,0,0,0,0,0
4.305,-4.375,0,0,0,0,0
4.306,-4.375,0,0,0,0,0
4.307,-4.375,0,0,0,0,0
4.308,-3.4375,0,0,0,0,0
4.309,-3.125,0,0,0,0,0
4.31,-3.125,0,0,0,0,0
4.311,-3.125,0,0,0,0,0
4.312,-2.5,0,0,0,0,0
4.313,-2.5,0,0,0,0,0
4.314,-3.125,0,0,0,0,0
4.315,-3.125,0,0,0,0,0
4.316,-3.75,0,0,0,0,0
4.317,-4.375,0,0,0,0,0
4.318,-4.0625,0,0,0,0,0
4.319,-3.75,0,0,0,0,0
4.32,-3.75,0,0,0,0,0
4.321,-3.125,0,0,0,0,0
4.322,-3.4375,0,0,0,0,0
4.323,-3.75,0,0,0,0,0
4.324,-3.4375,0,0,0,0,0
4.325,-3.125,0,0,0,0,0
4.326,-3.125,0,0,0,0,0
4.327,-3.125,0,0,0,0,0
4.328,-3.125,0,0,0,0,0
4.329,-2.5,0,0,0,0,0
4.33,-2.5,0,0,0,0,0
4.331,-3.125,0,0,0,0,0
4.332,-2.1875,0,0,0,0,0
4.333,-1.875,0,0,0,0,0
4.334,-1.875,0,0,0,0,0
4.335,-1.875,0,0,0,0,0
4.336,-1.875,0,0,0,0,0
4.337,-1.875,0,0,0,0,0
4.338,-1.875,0,0,0,0,0
4.339,-1.875,0,0,0,0,0
4.34,-2.1875,0,0,0,0,0
4.341,-2.5,0,0,0,0,0
4.342,-2.5,0,0,0,0,0
4.343,-2.5,0,0,0,0,0
4.344,-2.5,0,0,0,0,0
4.345,-2.5,0,0,0,0,0
4.346,-2.5,0,0,0,0,0
4.347,-2.5,0,0,0,0,0
4.348,-2.8125,0,0,0,0,0
4.349,-3.125,0,0,0,0,0
4.35,-3.125,0,0,0,0,0
4.351,-3.125,0,0,0,0,0
4.352,-2.8125,0,0,0,0,0
4.353,-2.5,0,0,0,0,0
4.354,-2.8125,0,0,0,0,0
4.355,-3.125,0,0,0,0,0
4.356,-3.125,0,0,0,0,0
4.357,-3.125,0,0,0,0,0
4.358,-3.125,0,0,0,0,0
4.359,-3.125,0,0,0,0,0
4.36,-2.8125,0,0,0,0,0
4.361,-2.5,0,0,0,0,0
4.362,-2.5,0,0,0,0,0
4.363,-2.5,0,0,0,0,0
4.364,-3.125,0,0,0,0,0
4.365,-3.125,0,0,0,0,0
4.366,-2.5,0,0,0,0,0
4.367,-1.875,0,0,0,0,0
4.368,-2.1875,0,0,0,0,0
4.369,-1.875,0,0,0,0,0
4.37,-2.1875,0,0,0,0,0
4.371,-1.875,0,0,0,0,0
4.372,-1.5625,0,0,0,0,0
4.373,-1.875,0,0,0,0,0
4.374,-1.875,0,0,0,0,0
4.375,-1.875,0,0,0,0,0
4.376,-2.8125,0,0,0,0,0
4.377,-3.125,0,0,0,0,0
4.378,-3.4375,0,0,0,0,0
4.379,-3.125,0,0,0,0,0
4.38,-3.125,0,0,0,0,0
4.381,-3.125,0,0,0,0,0
4.382,-2.1875,0,0,0,0,0
4.383,-1.875,0,0,0,0,0
4.384,-2.5,0,0,0,0,0
4.385,-1.875,0,0,0,0,0
4.386,-2.5,0,0,0,0,0
4.387,-2.5,0,0,0,0,0
4.388,-2.1875,0,0,0,0,0
4.389,-3.125,0,0,0,0,0
4.39,-2.5,0,0,0,0,0
4.391,-3.125,0,0,0,0,0
4.392,-2.5,0,0,0,0,0
4.393,-2.5,0,0,0,0,0
4.394,-2.1875,0,0,0,0,0
4.395,-1.875,0,0,0,0,0
4.396,-2.5,0,0,0,0,0
4.397,-1.875,0,0,0,0,0
4.398,-2.8125,0,0,0,0,0
4.399,-3.125,0,0,0,0,0
4.4,-2.8125,0,0,0,0,0
4.401,-3.125,0,0,0,0,0
4.402,-3.125,0,0,0,0,0
4.403,-3.125,0,0,0,0,0
4.404,-3.125,0,0,0,0,0
4.405,-3.75,0,0,0,0,0
4.406,-3.75,0,0,0,0,0
4.407,-3.125,0,0,0,0,0
4.408,-3.4375,0,0,0,0,0
4.409,-3.75,0,0,0,0,0
4.41,-3.75,0,0,0,0,0
4.411,-3.75,0,0,0,0,0
4.412,-4.0625,0,0,0,0,0
4.413,-3.75,0,0,0,0,0
4.414,-3.75,0,0,0,0,0
4.415,-3.75,0,0,0,0,0
4.416,-3.125,0,0,0,0,0
4.417,-3.75,0,0,0,0,0
4.418,-4.0625,0,0,0,0,0
4.419,-3.75,0,0,0,0,0
4.42,-3.75,0,0,0,0,0
4.421,-3.75,0,0,0,0,0
4.422,-3.4375,0,0,0,0,0
4.423,-3.75,0,0,0,0,0
4.424,-3.75,0,0,0,0,0
4.425,-3.125,0,0,0,0,0
4.426,-3.125,0,0,0,0,0
4.427,-3.125,0,0,0,0,0
4.428,-2.8125,0,0,0,0,0
4.429,-3.125,0,0,0,0,0
4.43,-3.125,0,0,0,0,0
4.431,-2.5,0,0,0,0,0
4.432,-2.5,0,0,0,0,0
4.433,-2.5,0,0,0,0,0
4.434,-2.5,0,0,0,0,0
4.435,-2.5,0,0,0,0,0
4.436,-2.1875,0,0,0,0,0
4.437,-1.875,0,0,0,0,0
4.438,-1.5625,0,0,0,0,0
4.439,-1.875,0,0,0,0,0
4.44,-1.25,0,0,0,0,0
4.441,-1.25,0,0,0,0,0
4.442,-1.875,0,0,0,0,0
4.443,-1.25,0,0,0,0,0
4.444,-1.25,0,0,0,0,0
4.445,-1.25,0,0,0,0,0
4.446,0,0,0,0,0,0
4.447,0.625,0,0,0,0,0
4.448,0.625,0,0,0,0,0
4.449,1.25,0,0,0,0,0
4.45,1.25,0,0,0,0,0
4.451,1.25,0,0,0,0,0
4.452,1.5625,0,0,0,0,0
4.453,1.25,0,0,0,0,0
4.454,1.5625,0,0,0,0,0
4.455,1.25,0,0,0,0,0
4.456,1.25,0,0,0,0,0
4.457,1.25,0,0,0,0,0
4.458,1.25,0,0,0,0,0
4.459,1.25,0,0,0,1,0
4.46,1.25,0,0,0,0,0
4.461,1.875,0,0,0,0,0
4.462,1.5625,0,0,0,0,0
4.463,2.5,0,0,0,0,0
4.464,1.25,0,0,0,0,0
4.465,0.625,0,0,0,0,0
4.466,0.625,0,0,0,0,0
4.467,1.25,0,0,0,0,0
4.468,0.3125,0,0,0,0,0
4.469,0.625,0,0,0,0,0
4.47,0.9375,0,0,0,0,0
4.471,1.25,0,0,0,0,0
4.472,1.25,0,0,0,0,0
4.473,1.25,0,0,0,0,0
4.474,0.9375,0,0,0,0,0
4.475,1.25,0,0,0,0,0
4.476,2.1875,0,0,0,0,0
4.477,2.5,0,0,0,0,0
4.478,1.875,0,0,0,0,0
4.479,2.5,0,0,0,0,0
4.48,2.8125,0,0,0,0,0
4.481,3.125,0,0,0,0,0
4.482,1.875,0,0,0,0,0
4.483,1.25,0,0,0,0,0
4.484,1.25,0,0,0,0,0
4.485,1.25,0,0,0,0,0
4.486,1.5625,0,0,0,0,0
4.487,1.875,0,0,0,0,0
4.488,1.875,0,0,0,0,0
4.489,1.25,0,0,0,0,0
4.49,0.9375,0,0,0,0,0
4.491,0.625,0,0,0,0,0
4.492,0,0,0,0,0,0
4.493,0,0,0,0,0,0
4.494,-0.3125,0,0,0,0,0
4.495,-0.625,0,0,0,0,0
4.496,-0.625,0,0,0,0,0
4.497,-0.625,0,0,0,0,0
4.498,-0.3125,0,0,0,0,0
4.499,0,0,0,0,0,0
4.5,0,0,0,0,0,0
4.501,0,0,0,0,0,0
4.502,0,0,0,0,0,0
4.503,0,0,0,0,0,0
4.504,-0.625,0,0,0,0,0
4.505,-0.625,0,0,0,0,0
4.506,-0.3125,0,0,0,0,0
4.507,0,0,0,0,0,0
4.508,0,0,0,0,0,0
4.509,0,0,0,0,0,0
4.51,0,0,0,0,0,0
4.511,0,0,0,0,0,0
4.512,-0.9375,0,0,0,0,0
4.513,-1.25,0,0,0,0,0
4.514,-1.25,0,0,0,0,0
4.515,-1.25,0,0,0,0,0
4.516,-0.9375,0,0,0,0,0
4.517,-0.625,0,0,0,0,0
4.518,-0.625,0,0,0,0,0
4.519,-0.625,0,0,0,0,0
4.52,-0.3125,0,0,0,0,0
4.521,0.625,0,0,0,0,0
4.522,0.625,0,0,0,0,0
4.523,0.625,0,0,0,0,0
4.524,0.3125,0,0,0,0,0
4.525,0,0,0,0,0,0
4.526,-0.9375,0,0,0,0,0
4.527,-0.625,0,0,0,0,0
4.528,-1.25,0,0,0,0,0
4.529,-0.625,0,0,0,0,0
4.53,-1.25,0,0,0,0,0
4.531,-1.25,0,0,0,0,0
4.532,-1.25,0,0,0,0,0
4.533,-1.25,0,0,0,0,0
4.534,-1.25,0,0,0,0,0
4.535,-1.25,0,0,0,0,0
4.536,-1.5625,0,0,0,0,0
4.537,-1.875,0,0,0,0,0
4.538,-1.25,0,0,0,0,0
4.539,-0.625,0,0,0,0,0
4.54,-0.625,0,0,0,0,0
4.541,-0.625,0,0,0,0,0
4.542,-0.9375,0,0,0,0,0
4.543,-1.25,0,0,0,0,0
4.544,-1.875,0,0,0,0,0
4.545,-1.875,0,0,0,0,0
4.546,-2.5,0,0,0,0,0
4.547,-2.5,0,0,0,0,0
4.548,-2.1875,0,0,0,0,0
4.549,-1.875,0,0,0,0,0
4.55,-1.875,0,0,0,0,0
4.551,-1.875,0,0,0,0,0
4.552,-1.5625,0,0,0,0,0
4.553,-1.25,0,0,0,0,0
4.554,-0.9375,0,0,0,0,0
4.555,-0.625,0,0,0,0,0
4.556,-0.625,0,0,0,0,0
4.557,-0.625,0,0,0,0,0
4.558,-1.25,0,0,0,0,0
4.559,-1.25,0,0,0,0,0
4.56,-1.25,0,0,0,0,0
4.561,-1.25,0,0,0,0,0
4.562,-0.9375,0,0,0,0,0
4.563,-0.625,0,0,0,0,0
4.564,-0.3125,0,0,0,0,0
4.565,0,0,0,0,0,0
4.566,0,0,0,0,0,0
4.567,0,0,0,0,0,0
4.568,0.3125,0,0,0,0,0
4.569,0.625,0,0,0,0,0
4.57,0,0,0,0,0,0
4.571,-0.625,0,0,0,0,0
4.572,-0.9375,0,0,0,0,0
4.573,-1.25,0,0,0,0,0
4.574,-1.5625,0,0,0,0,0
4.575,-1.25,0,0,0,0,0
4.576,-0.625,0,0,0,0,0
4.577,0,0,0,0,0,0
4.578,-0.3125,0,0,0,0,0
4.579,0,0,0,0,0,0
4.58,0,0,0,0,0,0
4.581,0,0,0,0,0,0
4.582,-0.3125,0,0,0,0,0
4.583,-0.625,0,0,0,0,0
4.584,-0.625,0,0,0,0,0
4.585,-0.625,0,0,0,0,0
4.586,-0.625,0,0,0,0,0
4.587,-0.625,0,0,0,0,0
4.588,-0.9375,0,0,0,0,0
4.589,-1.25,0,0,0,0,0
4.59,-1.5625,0,0,0,0,0
4.591,-1.875,0,0,0,0,0
4.592,-1.875,0,0,0,0,0
4.593,-1.875,0,0,0,0,0
4.594,-1.5625,0,0,0,0,0
4.595,-1.875,0,0,0,0,0
4.596,-1.5625,0,0,0,0,0
4.597,-1.875,0,0,0,0,0
4.598,-1.5625,0,0,0,0,0
4.599,-1.25,0,0,0,0,0
4.6,-2.1875,0,0,0,0,0
4.601,-1.875,0,0,0,0,0
4.602,-2.1875,0,0,0,0,0
4.603,-1.25,0,0,0,0,0
4.604,-1.875,0,0,0,0,0
4.605,-1.875,0,0,0,0,0
4.606,-2.1875,0,0,0,0,0
4.607,-2.5,0,0,0,0,0
4.608,-2.1875,0,0,0,0,0
4.609,-1.875,0,0,0,0,0
4.61,-1.875,0,0,0,0,0
4.611,-1.875,0,0,0,0,0
4.612,-1.875,0,0,0,0,0
4.613,-1.875,0,0,0,0,0
4.614,-1.5625,0,0,0,0,0
4.615,-0.625,0,0,0,0,0
4.616,-0.9375,0,0,0,0,0
4.617,-0.625,0,0,0,0,0
4.618,-0.625,0,0,0,0,0
4.619,-0.625,0,0,0,0,0
4.62,-0.625,0,0,0,0,0
4.621,-0.625,0,0,0,0,0
4.622,0,0,0,0,0,0
4.623,-0.625,0,0,0,0,0
4.624,-1.875,0,0,0,0,0
4.625,-3.125,0,0,0,0,0
4.626,-3.125,0,0,0,0,0
4.627,-3.125,0,0,0,0,0
4.628,-2.8125,0,0,0,0,0
4.629,-3.125,0,0,0,0,0
4.63,-2.8125,0,0,0,0,0
4.631,-2.5,0,0,0,0,0
4.632,-2.5,0,0,0,0,0
4.633,-2.5,0,0,0,0,0
4.634,-3.125,0,0,0,0,0
4.635,-3.125,0,0,0,0,0
4.636,-2.8125,0,0,0,0,0
4.637,-2.5,0,0,0,0,0
4.638,-1.875,0,0,0,0,0
4.639,-1.25,0,0,0,0,0
4.64,-1.25,0,0,0,0,0
4.641,-1.25,0,0,0,0,0
4.642,-0.9375,0,0,0,0,0
4.643,-0.625,0,0,0,0,0
4.644,-0.9375,0,0,0,0,0
4.645,-1.25,0,0,0,0,0
4.646,-1.25,0,0,0,0,0
4.647,-1.25,0,0,0,0,0
4.648,-1.25,0,0,0,0,0
4.649,-1.875,0,0,0,0,0
4.65,-2.5,0,0,0,0,0
4.651,-3.125,0,0,0,0,0
4.652,-2.8125,0,0,0,0,0
4.653,-2.5,0,0,0,0,0
4.654,-2.8125,0,0,0,0,0
4.655,-3.125,0,0,0,0,0
4.656,-2.5,0,0,0,0,0
4.657,-3.125,0,0,0,0,0
4.658,-3.125,0,0,0,0,0
4.659,-3.125,0,0,0,0,0
4.66,-3.125,0,0,0,0,0
4.661,-3.75,0,0,0,0,0
4.662,-3.125,0,0,0,0,0
4.663,-3.125,0,0,0,0,0
4.664,-2.5,0,0,0,0,0
4.665,-3.125,0,0,0,0,0
4.666,-2.1875,0,0,0,0,0
4.667,-1.875,0,0,0,0,0
4.668,-1.5625,0,0,0,0,0
4.669,-1.875,0,0,0,0,0
4.67,-1.5625,0,0,0,0,0
4.671,-1.25,0,0,0,0,0
4.672,-2.5,0,0,0,0,0
4.673,-2.5,0,0,0,0,0
4.674,-2.5,0,0,0,0,0
4.675,-2.5,0,0,0,0,0
4.676,-2.8125,0,0,0,0,0
4.677,-3.125,0,0,0,0,0
4.678,-2.8125,0,0,0,0,0
4.679,-2.5,0,0,0,0,0
4.68,-2.5,0,0,0,0,0
4.681,-2.5,0,0,0,0,0
4.682,-2.1875,0,0,0,0,0
4.683,-1.875,0,0,0,0,0
4.684,-1.5625,0,0,0,0,0
4.685,-1.25,0,0,0,0,0
4.686,-1.875,0,0,0,0,0
4.687,-1.875,0,0,0,0,0
4.688,-1.875,0,0,0,0,0
4.689,-1.25,0,0,0,0,0
4.69,-0.9375,0,0,0,0,0
4.691,-1.25,0,0,0,0,0
4.692,-1.25,0,0,0,0,0
4.693,-1.25,0,0,0,0,0
4.694,-1.5625,0,0,0,0,0
4.695,-1.875,0,0,0,0,0
4.696,-2.1875,0,0,0,0,0
4.697,-1.875,0,0,0,0,0
4.698,-2.5,0,0,0,0,0
4.699,-2.5,0,0,0,0,0
4.7,-2.1875,0,0,0,0,0
4.701,-2.5,0,0,0,0,0
4.702,-2.1875,0,0,0,0,0
4.703,-2.5,0,0,0,0,0
4.704,-2.8125,0,0,0,0,0
4.705,-3.125,0,0,0,0,0
4.706,-3.4375,0,0,0,0,0
4.707,-3.125,0,0,0,0,0
4.708,-3.125,0,0,0,0,0
4.709,-3.125,0,0,0,0,0
4.71,-2.8125,0,0,0,0,0
4.711,-2.5,0,0,0,0,0
4.712,-2.8125,0,0,0,0,0
4.713,-3.125,0,0,0,0,0
4.714,-2.5,0,0,0,0,0
4.715,-2.5,0,0,0,0,0
4.716,-2.8125,0,0,0,0,1
4.717,-3.125,0,0,0,0,0
4.718,-3.4375,0,0,0,0,0
4.719,-3.75,0,0,0,0,0
4.72,-3.4375,0,0,0,0,0
4.721,-3.125,0,0,0,0,0
4.722,-2.8125,0,0,0,0,0
4.723,-3.125,0,0,0,0,0
4.724,-2.5,0,0,0,0,0
4.725,-3.125,0,0,0,0,0
4.726,-2.8125,0,0,0,0,0
4.727,-3.125,0,0,0,0,0
4.728,-3.125,0,0,0,0,0
4.729,-3.125,0,0,0,0,0
4.73,-2.5,0,0,0,0,0
4.731,-1.875,0,0,0,0,0
4.732,-2.1875,0,0,0,0,0
4.733,-1.875,0,0,0,0,0
4.734,-2.5,0,0,0,0,0
4.735,-2.5,0,0,0,0,0
4.736,-2.5,0,0,0,0,0
4.737,-3.125,0,0,0,0,0
4.738,-2.5,0,0,0,0,0
4.739,-2.5,0,0,0,0,0
4.74,-2.5,0,0,0,0,0
4.741,-2.5,0,0,0,0,0
4.742,-2.5,0,0,0,0,0
4.743,-2.5,0,0,0,0,0
4.744,-2.8125,0,0,0,0,0
4.745,-3.125,0,0,0,0,0
4.746,-3.125,0,0,0,0,0
4.747,-3.125,0,0,0,0,0
4.748,-3.125,0,0,0,0,0
4.749,-3.125,0,0,0,0,0
4.75,-3.4375,0,0,0,0,0
4.751,-2.5,0,0,0,0,0
4.752,-2.5,0,0,0,0,0
4.753,-2.5,0,0,0,0,0
4.754,-2.1875,0,0,0,0,0
4.755,-2.5,0,0,0,0,0
4.756,-2.8125,0,0,0,0,0
4.757,-2.5,0,0,0,0,0
4.758,-2.5,0,0,0,0,0
4.759,-3.125,0,0,0,0,0
4.76,-3.125,0,0,0,0,0
4.761,-2.5,0,0,0,0,0
4.762,-2.1875,0,0,0,0,0
4.763,-2.5,0,0,0,0,0
4.764,-2.8125,0,0,0,0,0
4.765,-3.125,0,0,0,0,0
4.766,-3.125,0,0,0,0,0
4.767,-3.125,0,0,0,0,0
4.768,-3.4375,0,0,0,0,0
4.769,-3.75,0,0,0,0,0
4.77,-3.4375,0,0,0,0,0
4.771,-3.75,0,0,0,0,0
4.772,-3.75,0,0,0,0,0
4.773,-3.75,0,0,0,0,0
4.774,-3.4375,0,0,0,0,0
4.775,-3.75,0,0,0,0,0
4.776,-3.4375,0,0,0,0,0
4.777,-3.125,0,0,0,0,0
4.778,-3.125,0,0,0,0,0
4.779,-3.75,0,0,0,0,0
4.78,-3.4375,0,0,0,0,0
4.781,-3.75,0,0,0,0,0
4.782,-3.75,0,0,0,0,0
4.783,-3.75,0,0,0,0,0
4.784,-3.75,0,0,0,0,0
4.785,-3.75,0,0,0,0,0
4.786,-3.75,0,0,0,0,0
4.787,-3.75,0,0,0,0,0
4.788,-3.4375,0,0,0,0,0
4.789,-3.75,0,0,0,0,0
4.79,-3.4375,0,0,0,0,0
4.791,-3.125,0,0,0,0,0
4.792,-3.4375,0,0,0,0,0
4.793,-3.125,0,0,0,0,0
4.794,-2.5,0,0,0,0,0
4.795,-2.5,0,0,0,0,0
4.796,-2.5,0,0,0,0,0
4.797,-2.5,0,0,0,0,0
4.798,-2.5,0,0,0,0,0
4.799,-3.125,0,0,0,0,0
4.8,-2.1875,0,0,0,0,0
4.801,-2.5,0,0,0,0,0
4.802,-2.5,0,0,0,0,0
4.803,-1.875,0,0,0,0,0
4.804,-2.1875,0,0,0,0,0
4.805,-1.875,0,0,0,0,0
4.806,-1.875,0,0,0,0,0
4.807,-1.875,0,0,0,0,0
4.808,-1.5625,0,0,0,0,0
4.809,-1.25,0,0,0,0,0
4.81,-2.5,0,0,0,0,0
4.811,-2.5,0,0,0,0,0
4.812,-1.875,0,0,0,0,0
4.813,-1.25,0,0,0,0,0
4.814,-1.875,0,0,0,0,0
4.815,-1.875,0,0,0,0,0
4.816,-1.5625,0,0,0,0,0
4.817,-2.5,0,0,0,0,0
4.818,-2.8125,0,0,0,0,0
4.819,-3.125,0,0,0,0,0
4.82,-2.8125,0,0,0,0,0
4.821,-2.5,0,0,0,0,0
4.822,-2.5,0,0,0,0,0
4.823,-2.5,0,0,0,0,0
4.824,-3.125,0,0,0,0,0
4.825,-3.75,0,0,0,0,0
4.826,-3.125,0,0,0,0,0
4.827,-2.5,0,0,0,0,0
4.828,-2.5,0,0,0,0,0
4.829,-3.125,0,0,0,0,0
4.83,-2.8125,0,0,0,0,0
4.831,-2.5,0,0,0,0,0
4.832,-2.8125,0,0,0,0,0
4.833,-3.125,0,0,0,0,0
4.834,-2.8125,0,0,0,0,0
4.835,-2.5,0,0,0,0,0
4.836,-2.8125,0,0,0,0,0
4.837,-3.125,0,0,0,0,0
4.838,-3.125,0,0,0,0,0
4.839,-3.125,0,0,0,0,0
4.84,-3.125,0,0,0,0,0
4.841,-3.75,0,0,0,0,0
4.842,-3.4375,0,0,0,0,0
4.843,-3.75,0,0,0,0,0
4.844,-3.75,0,0,0,0,0
4.845,-4.375,0,0,0,0,0
4.846,-3.4375,0,0,0,0,0
4.847,-3.125,0,0,0,0,0
4.848,-3.75,0,0,0,0,0
4.849,-3.75,0,0,0,0,0
4.85,-3.75,0,0,0,0,0
4.851,-3.75,0,0,0,0,0
4.852,-3.4375,0,0,0,0,0
4.853,-3.125,0,0,0,0,0
4.854,-2.8125,0,0,0,0,0
4.855,-3.125,0,0,0,0,0
4.856,-2.8125,0,0,0,0,0
4.857,-2.5,0,0,0,0,0
4.858,-3.4375,0,0,0,0,0
4.859,-3.125,0,0,0,0,0
4.86,-3.125,0,0,0,0,0
4.861,-2.5,0,0,0,0,0
4.862,-1.875,0,0,0,0,0
4.863,-1.25,0,0,0,0,0
4.864,-1.5625,0,0,0,0,0
4.865,-1.875,0,0,0,0,0
4.866,-1.875,0,0,0,0,0
4.867,-1.875,0,0,0,0,0
4.868,-2.1875,0,0,0,0,0
4.869,-2.5,0,0,0,0,0
4.87,-2.5,0,0,0,0,0
4.871,-2.5,0,0,0,0,0
4.872,-2.5,0,0,0,0,0
4.873,-2.5,0,0,0,0,0
4.874,-2.5,0,0,0,0,0
4.875,-2.5,0,0,0,0,0
4.876,-2.8125,0,0,0,0,0
4.877,-3.125,0,0,0,0,0
4.878,-3.125,0,0,0,0,0
4.879,-3.75,0,0,0,0,0
4.88,-3.125,0,0,0,0,0
4.881,-3.125,0,0,0,0,0
4.882,-2.8125,0,0,0,0,0
4.883,-2.5,0,0,0,0,0
4.884,-1.875,0,0,0,0,0
4.885,-1.875,0,0,0,0,0
4.886,-1.875,0,0,0,0,0
4.887,-1.875,0,0,0,0,0
4.888,-2.1875,0,0,0,0,0
4.889,-2.5,0,0,0,0,0
4.89,-2.1875,0,0,0,0,0
4.891,-2.5,0,0,0,0,0
4.892,-1.875,0,0,0,0,0
4.893,-1.875,0,0,0,0,0
4.894,-2.1875,0,0,0,0,0
4.895,-2.5,0,0,0,0,0
4.896,-2.8125,0,0,0,0,0
4.897,-2.5,0,0,0,0,0
4.898,-1.5625,0,0,0,0,0
4.899,-1.875,0,0,0,0,0
4.9,-2.5,0,0,0,0,0
4.901,-2.5,0,0,0,0,0
4.902,-1.875,0,0,0,0,0
4.903,-1.875,0,0,0,0,0
4.904,-2.1875,0,0,0,0,0
4.905,-2.5,0,0,0,0,0
4.906,-1.875,0,0,0,0,0
4.907,-1.25,0,0,0,0,0
4.908,-1.25,0,0,0,0,0
4.909,-1.25,0,0,0,0,0
4.91,-1.25,0,0,0,0,0
4.911,-1.25,0,0,0,0,0
4.912,-1.25,0,0,0,0,0
4.913,-1.25,0,0,0,0,0
4.914,-1.25,0,0,0,0,0
4.915,-0.625,0,0,0,0,0
4.916,-0.9375,0,0,0,0,0
4.917,-1.25,0,0,0,0,0
4.918,-1.5625,0,0,0,0,0
4.919,-1.875,0,0,0,0,0
4.92,-1.875,0,0,0,0,0
4.921,-1.875,0,0,0,0,0
4.922,-1.25,0,0,0,0,0
4.923,-1.25,0,0,0,0,0
4.924,-1.25,0,0,0,0,0
4.925,-1.25,0,0,0,0,0
4.926,-1.25,0,0,0,0,0
4.927,-0.625,0,0,0,0,0
4.928,0,0,0,0,0,0
4.929,0,0,0,0,0,0
4.93,0,0,0,0,0,0
4.931,0,0,0,0,0,0
4.932,0,0,0,0,0,0
4.933,0,0,0,0,0,0
4.934,0.3125,0,0,0,0,0
4.935,0.625,0,0,0,0,0
4.936,0.3125,0,0,0,0,0
4.937,0,0,0,0,0,0
4.938,-0.625,0,0,0,0,0
4.939,-0.625,0,0,0,0,0
4.94,-0.3125,0,0,0,0,0
4.941,0,0,0,0,0,0
4.942,-0.3125,0,0,0,0,0
4.943,-0.625,0,0,0,0,0
4.944,-0.625,0,0,0,0,0
4.945,-0.625,0,0,0,0,0
4.946,-0.625,0,0,0,0,0
4.947,0,0,0,0,0,0
4.948,0.9375,0,0,0,0,0
4.949,1.25,0,0,0,0,0
4.95,1.25,0,0,0,0,0
4.951,1.25,0,0,0,0,0
4.952,1.5625,0,0,0,0,0
4.953,1.25,0,0,0,0,0
4.954,1.25,0,0,0,0,0
4.955,1.25,0,0,0,0,0
4.956,1.25,0,0,0,0,0
4.957,1.25,0,0,0,0,0
4.958,2.1875,0,0,0,0,0
4.959,1.875,0,0,0,0,0
4.96,1.5625,0,0,0,0,0
4.961,1.25,0,0,0,0,0
4.962,1.5625,0,0,0,0,0
4.963,1.875,0,0,0,0,0
4.964,1.5625,0,0,0,0,0
4.965,1.875,0,0,0,0,0
4.966,0.9375,0,0,0,0,0
4.967,1.25,0,0,0,0,0
4.968,1.5625,0,0,0,0,0
4.969,1.25,0,0,0,0,0
4.97,0,0,0,0,0,0
4.971,-0.625,0,0,0,0,0
4.972,-0.625,0,0,0,0,0
4.973,-1.25,0,0,0,0,0
4.974,-1.25,0,0,0,0,0
4.975,-1.25,0,0,0,0,0
4.976,-0.625,0,0,0,0,0
4.977,-0.625,0,0,0,0,0
4.978,-0.625,0,0,0,0,0
4.979,-0.625,0,0,0,0,0
4.98,-1.25,0,0,0,0,0
4.981,-1.25,0,0,0,0,0
4.982,-1.5625,0,0,0,0,0
4.983,-1.875,0,0,0,0,0
4.984,-1.875,0,0,0,0,0
4.985,-2.5,0,0,0,0,0
4.986,-2.8125,0,0,0,0,0
4.987,-2.5,0,0,0,0,0
4.988,-2.1875,0,0,0,0,0
4.989,-2.5,0,0,0,0,0
4.99,-2.1875,0,0,0,0,0
4.991,-1.25,0,0,0,0,0
4.992,-1.25,0,0,0,0,0
4.993,-1.25,0,0,0,0,0
4.994,-0.9375,0,0,0,0,0
4.995,-0.625,0,0,0,0,0
4.996,-0.625,0,0,0,0,0
4.997,-0.625,0,0,0,0,0
4.998,-0.625,0,0,0,0,0
4.999,-0.625,0,0,0,0,0
5,-0.3125,0,0,0,0,0
5.001,-0.625,0,0,0,0,0
5.002,-0.3125,0,0,0,0,0
5.003,0,0,0,0,0,0
5.004,0,0,0,0,0,0
5.005,0,0,0,0,0,0
5.006,-0.625,0,0,0,0,0
5.007,-0.625,0,0,0,0,0
5.008,-1.25,0,0,0,0,0
5.009,-1.25,0,0,0,0,0
5.01,-1.5625,0,0,0,0,0
5.011,-0.625,0,0,0,0,0
5.012,-1.25,0,0,0,0,0
5.013,-1.25,0,0,0,0,0
5.014,-0.9375,0,0,0,0,0
5.015,-1.25,0,0,0,0,0
5.016,-0.9375,0,0,0,0,0
5.017,-1.25,0,0,0,0,0
5.018,-1.25,0,0,0,0,0
5.019,-1.25,0,0,0,0,0
5.02,-1.875,0,0,0,0,0
5.021,-1.875,0,0,0,0,0
5.022,-1.25,0,0,0,0,0
5.023,-1.875,0,0,0,0,0
5.024,-1.875,0,0,0,0,0
5.025,-2.5,0,0,0,0,0
5.026,-2.8125,0,0,0,0,0
5.027,-3.125,0,0,0,0,0
5.028,-3.125,0,0,0,0,0
5.029,-3.125,0,0,0,0,0
5.03,-2.8125,0,0,0,0,0
5.031,-2.5,0,0,0,0,0
5.032,-2.5,0,0,0,0,0
5.033,-2.5,0,0,0,0,0
5.034,-2.1875,0,0,0,0,0
5.035,-1.875,0,0,0,0,0
5.036,-2.1875,0,0,0,0,0
5.037,-2.5,0,0,0,0,0
5.038,-2.1875,0,0,0,0,0
5.039,-1.875,0,0,0,0,0
5.04,-2.8125,0,0,0,0,0
5.041,-2.5,0,0,0,0,0
5.042,-2.5,0,0,0,0,0
5.043,-2.5,0,0,0,0,0
5.044,-2.5,0,0,0,0,0
5.045,-2.5,0,0,0,0,0
5.046,-2.5,0,0,0,0,0
5.047,-2.5,0,0,0,0,0
5.048,-2.1875,0,0,0,0,0
5.049,-1.875,0,0,0,0,0
5.05,-2.1875,0,0,0,0,0
5.051,-2.5,0,0,0,0,0
5.052,-2.5,0,0,0,0,0
5.053,-2.5,0,0,0,0,0
5.054,-2.5,0,0,0,0,0
5.055,-2.5,0,0,0,0,0
5.056,-2.8125,0,0,0,0,0
5.057,-3.125,0,0,0,0,0
5.058,-2.8125,0,0,0,0,0
5.059,-2.5,0,0,0,0,0
5.06,-2.8125,0,0,0,0,0
5.061,-3.125,0,0,0,0,0
5.062,-2.1875,0,0,0,0,0
5.063,-1.875,0,0,0,0,0
5.064,-2.1875,0,0,0,0,0
5.065,-1.875,0,0,0,0,0
5.066,-1.875,0,0,0,0,0
5.067,-1.875,0,0,0,0,0
5.068,-1.875,0,0,0,0,0
5.069,-1.875,0,0,0,0,0
5.07,-1.5625,0,0,0,0,0
5.071,-1.875,0,0,0,0,0
5.072,-1.875,0,0,0,0,0
5.073,-2.5,0,0,0,0,0
5.074,-2.8125,0,0,0,0,0
5.075,-3.125,0,0,0,0,0
5.076,-2.8125,0,0,0,0,0
5.077,-3.125,0,0,0,0,0
5.078,-2.8125,0,0,0,0,0
5.079,-2.5,0,0,0,0,0
5.08,-2.1875,0,0,0,0,0
5.081,-1.875,0,0,0,0,0
5.082,-1.875,0,0,0,0,0
5.083,-1.875,0,0,0,0,0
5.084,-2.1875,0,0,0,0,0
5.085,-2.5,0,0,0,0,0
5.086,-1.5625,0,0,0,0,0
5.087,-1.25,0,0,0,0,0
5.088,-0.3125,0,0,0,0,0
5.089,0,0,0,0,0,0
5.09,0.3125,0,0,0,0,0
5.091,0.625,0,0,0,0,0
5.092,0.3125,0,0,0,0,0
5.093,0.625,0,0,0,0,0
5.094,1.25,0,0,0,0,0
5.095,1.25,0,0,0,0,0
5.096,1.5625,1,0,0,0,0
5.097,1.875,0,0,0,0,0
5.098,1.5625,0,0,0,0,0
5.099,1.875,0,0,0,0,0
5.1,2.5,0,0,0,0,0
5.101,3.75,0,0,0,0,0
5.102,3.75,0,0,0,0,0
5.103,3.75,0,0,0,0,0
5.104,4.6875,0,0,0,0,0
5.105,5.625,0,0,0,0,0
5.106,5.9375,0,0,0,0,0
5.107,6.875,0,0,0,0,0
5.108,8.125,0,0,0,0,0
5.109,8.75,0,0,0,0,0
5.11,10.313,0,0,0,0,0
5.111,11.875,0,0,0,0,0
5.112,13.438,0,0,0,0,0
5.113,15.625,0,0,0,0,0
5.114,18.125,0,0,0,0,0
5.115,21.25,0,0,0,0,0
5.116,24.063,0,0,0,0,0
5.117,26.875,0,0,0,0,0
5.118,30,0,0,0,0,0
5.119,33.125,0,0,0,0,0
5.12,35.938,0,0,0,0,0
5.121,40,0,0,0,0,0
5.122,45.625,0,0,0,0,0
5.123,50.625,0,0,0,0,0
5.124,55.313,0,0,0,0,0
5.125,60.625,0,0,0,0,0
5.126,65,0,0,0,0,0
5.127,70,0,0,0,0,0
5.128,74.063,0,0,0,0,0
5.129,78.75,0,0,0,0,0
5.13,83.438,0,0,0,0,0
5.131,86.875,0,0,0,0,0
5.132,90.313,0,0,0,0,0
5.133,94.375,0,0,0,0,0
5.134,97.5,0,0,0,0,0
5.135,99.375,0,1,0,0,0
5.136,100.63,0,0,0,0,0
5.137,100,0,0,0,0,0
5.138,100,0,0,0,0,0
5.139,100,0,0,0,0,0
5.14,99.375,0,0,0,0,0
5.141,97.5,0,0,0,0,0
5.142,94.688,0,0,0,0,0
5.143,89.375,0,0,0,0,0
5.144,82.5,0,0,0,0,0
5.145,73.75,0,0,0,0,0
5.146,61.875,0,0,0,0,0
5.147,48.125,0,0,0,0,0
5.148,37.188,0,0,0,0,0
5.149,27.5,0,0,0,0,0
5.15,18.438,0,0,0,0,0
5.151,9.375,0,0,0,0,0
5.152,-1.25,0,0,0,0,0
5.153,-13.125,0,0,0,0,0
5.154,-24.063,0,0,0,0,0
5.155,-33.75,0,0,0,0,0
5.156,-40.625,0,0,0,0,0
5.157,-45,0,0,0,0,0
5.158,-46.875,0,0,0,0,0
5.159,-48.125,0,0,0,0,0
5.16,-49.688,0,0,0,0,0
5.161,-49.375,0,0,0,0,0
5.162,-47.813,0,0,0,0,0
5.163,-46.875,0,0,0,0,0
5.164,-45.625,0,0,0,0,0
5.165,-43.75,0,0,0,0,0
5.166,-41.25,0,0,0,0,0
5.167,-38.125,0,0,0,0,0
5.168,-35,0,0,0,0,0
5.169,-31.875,0,0,0,0,0
5.17,-30,0,0,0,0,0
5.171,-28.125,0,0,0,0,0
5.172,-25.625,0,0,0,0,0
5.173,-23.75,0,0,0,0,0
5.174,-20.938,0,0,0,0,0
5.175,-18.75,0,0,0,0,0
5.176,-16.875,0,0,0,0,0
5.177,-15.625,0,0,0,0,0
5.178,-13.75,0,0,0,0,0
5.179,-12.5,0,0,0,0,0
5.18,-11.563,0,0,0,0,0
5.181,-9.375,0,0,0,0,0
5.182,-8.125,0,0,0,0,0
5.183,-6.875,0,0,0,0,0
5.184,-7.1875,0,0,0,0,0
5.185,-6.875,0,0,0,0,0
5.186,-6.25,0,0,0,0,0
5.187,-5.625,0,0,0,0,0
5.188,-4.375,0,0,1,0,0
5.189,-3.75,0,0,0,0,0
5.19,-3.125,0,0,0,0,0
5.191,-3.125,0,0,0,0,0
5.192,-3.125,0,0,0,0,0
5.193,-3.125,0,0,0,0,0
5.194,-3.75,0,0,0,0,0
5.195,-3.125,0,0,0,0,0
5.196,-3.125,0,0,0,0,0
5.197,-3.125,0,0,0,0,0
5.198,-2.8125,0,0,0,0,0
5.199,-3.125,0,0,0,0,0
5.2,-3.125,0,0,0,0,0
5.201,-3.125,0,0,0,0,0
5.202,-3.4375,0,0,0,0,0
5.203,-3.75,0,0,0,0,0
5.204,-4.0625,0,0,0,0,0
5.205,-4.375,0,0,0,0,0
5.206,-4.375,0,0,0,0,0
5.207,-4.375,0,0,0,0,0
5.208,-4.375,0,0,0,0,0
5.209,-4.375,0,0,0,0,0
5.21,-3.4375,0,0,0,0,0
5.211,-3.125,0,0,0,0,0
5.212,-3.4375,0,0,0,0,0
5.213,-3.125,0,0,0,0,0
5.214,-3.4375,0,0,0,0,0
5.215,-3.75,0,0,0,0,0
5.216,-3.75,0,0,0,0,0
5.217,-3.75,0,0,0,0,0
5.218,-3.4375,0,0,0,0,0
5.219,-3.125,0,0,0,0,0
5.22,-2.1875,0,0,0,0,0
5.221,-1.875,0,0,0,0,0
5.222,-2.1875,0,0,0,0,0
5.223,-1.875,0,0,0,0,0
5.224,-2.1875,0,0,0,0,0
5.225,-2.5,0,0,0,0,0
5.226,-2.8125,0,0,0,0,0
5.227,-3.125,0,0,0,0,0
5.228,-2.8125,0,0,0,0,0
5.229,-3.125,0,0,0,0,0
5.23,-2.8125,0,0,0,0,0
5.231,-2.5,0,0,0,0,0
5.232,-3.125,0,0,0,0,0
5.233,-3.125,0,0,0,0,0
5.234,-3.125,0,0,0,0,0
5.235,-3.125,0,0,0,0,0
5.236,-2.8125,0,0,0,0,0
5.237,-3.125,0,0,0,0,0
5.238,-2.8125,0,0,0,0,0
5.239,-2.5,0,0,0,0,0
5.24,-2.1875,0,0,0,0,0
5.241,-2.5,0,0,0,0,0
5.242,-2.1875,0,0,0,0,0
5.243,-2.5,0,0,0,0,0
5.244,-1.875,0,0,0,0,0
5.245,-1.875,0,0,0,0,0
5.246,-2.5,0,0,0,0,0
5.247,-2.5,0,0,0,0,0
5.248,-2.8125,0,0,0,0,0
5.249,-3.125,0,0,0,0,0
5.25,-2.8125,0,0,0,0,0
5.251,-2.5,0,0,0,0,0
5.252,-2.5,0,0,0,0,0
5.253,-2.5,0,0,0,0,0
5.254,-2.8125,0,0,0,0,0
5.255,-1.875,0,0,0,0,0
5.256,-2.8125,0,0,0,0,0
5.257,-3.125,0,0,0,0,0
5.258,-3.125,0,0,0,0,0
5.259,-3.125,0,0,0,0,0
5.26,-3.4375,0,0,0,0,0
5.261,-3.75,0,0,0,0,0
5.262,-3.125,0,0,0,0,0
5.263,-2.5,0,0,0,0,0
5.264,-2.5,0,0,0,0,0
5.265,-2.5,0,0,0,0,0
5.266,-2.5,0,0,0,0,0
5.267,-2.5,0,0,0,0,0
5.268,-2.5,0,0,0,0,0
5.269,-2.5,0,0,0,0,0
5.27,-2.5,0,0,0,0,0
5.271,-2.5,0,0,0,0,0
5.272,-2.5,0,0,0,0,0
5.273,-2.5,0,0,0,0,0
5.274,-2.1875,0,0,0,0,0
5.275,-1.25,0,0,0,0,0
5.276,-0.9375,0,0,0,0,0
5.277,-1.25,0,0,0,0,0
5.278,-1.25,0,0,0,0,0
5.279,-1.25,0,0,0,0,0
5.28,-1.25,0,0,0,0,0
5.281,-1.25,0,0,0,0,0
5.282,-1.25,0,0,0,0,0
5.283,-1.25,0,0,0,0,0
5.284,-1.875,0,0,0,0,0
5.285,-2.5,0,0,0,0,0
5.286,-3.4375,0,0,0,0,0
5.287,-3.125,0,0,0,0,0
5.288,-3.4375,0,0,0,0,0
5.289,-3.75,0,0,0,0,0
5.29,-3.4375,0,0,0,0,0
5.291,-3.125,0,0,0,0,0
5.292,-2.5,0,0,0,0,0
5.293,-2.5,0,0,0,0,0
5.294,-2.5,0,0,0,0,0
5.295,-2.5,0,0,0,0,0
5.296,-2.5,0,0,0,0,0
5.297,-2.5,0,0,0,0,0
5.298,-2.1875,0,0,0,0,0
5.299,-2.5,0,0,0,0,0
5.3,-2.1875,0,0,0,0,0
5.301,-3.125,0,0,0,0,0
5.302,-2.1875,0,0,0,0,0
5.303,-2.5,0,0,0,0,0
5.304,-2.8125,0,0,0,0,0
5.305,-3.125,0,0,0,0,0
5.306,-2.8125,0,0,0,0,0
5.307,-2.5,0,0,0,0,0
5.308,-2.8125,0,0,0,0,0
5.309,-3.125,0,0,0,0,0
5.31,-2.8125,0,0,0,0,0
5.311,-2.5,0,0,0,0,0
5.312,-2.5,0,0,0,0,0
5.313,-2.5,0,0,0,0,0
5.314,-2.1875,0,0,0,0,0
5.315,-1.875,0,0,0,0,0
5.316,-1.875,0,0,0,0,0
5.317,-1.875,0,0,0,0,0
5.318,-1.875,0,0,0,0,0
5.319,-1.875,0,0,0,0,0
5.32,-1.5625,0,0,0,0,0
5.321,-1.25,0,0,0,0,0
5.322,-1.25,0,0,0,0,0
5.323,-1.25,0,0,0,0,0
5.324,-0.9375,0,0,0,0,0
5.325,-0.625,0,0,0,0,0
5.326,-0.625,0,0,0,0,0
5.327,-0.625,0,0,0,0,0
5.328,-0.625,0,0,0,0,0
5.329,-0.625,0,0,0,0,0
5.33,-0.9375,0,0,0,0,0
5.331,-1.25,0,0,0,0,0
5.332,-1.875,0,0,0,0,0
5.333,-1.25,0,0,0,0,0
5.334,-1.5625,0,0,0,0,0
5.335,-1.875,0,0,0,0,0
5.336,-2.1875,0,0,0,0,0
5.337,-2.5,0,0,0,0,0
5.338,-1.5625,0,0,0,0,0
5.339,-1.25,0,0,0,0,0
5.34,-1.875,0,0,0,0,0
5.341,-1.875,0,0,0,0,0
5.342,-2.1875,0,0,0,0,0
5.343,-2.5,0,0,0,0,0
5.344,-2.1875,0,0,0,0,0
5.345,-3.125,0,0,0,0,0
5.346,-2.8125,0,0,0,0,0
5.347,-2.5,0,0,0,0,0
5.348,-2.8125,0,0,0,0,0
5.349,-3.125,0,0,0,0,0
5.35,-3.125,0,0,0,0,0
5.351,-2.5,0,0,0,0,0
5.352,-2.8125,0,0,0,0,0
5.353,-3.125,0,0,0,0,0
5.354,-2.8125,0,0,0,0,0
5.355,-2.5,0,0,0,0,0
5.356,-2.1875,0,0,0,0,0
5.357,-2.5,0,0,0,0,0
5.358,-2.5,0,0,0,0,0
5.359,-2.5,0,0,0,0,0
5.36,-1.5625,0,0,0,0,0
5.361,-1.25,0,0,0,0,0
5.362,-1.5625,0,0,0,0,0
5.363,-1.25,0,0,0,0,0
5.364,-1.5625,0,0,0,0,0
5.365,-1.875,0,0,0,0,0
5.366,-1.5625,0,0,0,0,0
5.367,-1.25,0,0,0,0,0
5.368,-1.5625,0,0,0,0,0
5.369,-1.25,0,0,0,0,0
5.37,-1.5625,0,0,0,0,0
5.371,-1.875,0,0,0,0,0
5.372,-1.875,0,0,0,0,0
5.373,-1.875,0,0,0,0,0
5.374,-1.25,0,0,0,0,0
5.375,-0.625,0,0,0,0,0
5.376,-1.25,0,0,0,0,0
5.377,-1.25,0,0,0,0,0
5.378,-0.9375,0,0,0,0,0
5.379,-1.25,0,0,0,0,0
5.38,-0.9375,0,0,0,0,0
5.381,-1.25,0,0,0,0,0
5.382,-1.25,0,0,0,0,0
5.383,-1.25,0,0,0,0,0
5.384,-1.5625,0,0,0,0,0
5.385,-1.875,0,0,0,0,0
5.386,-1.875,0,0,0,0,0
5.387,-1.875,0,0,0,0,0
5.388,-1.875,0,0,0,0,0
5.389,-1.875,0,0,0,0,0
5.39,-1.875,0,0,0,0,0
5.391,-1.875,0,0,0,0,0
5.392,-1.875,0,0,0,0,0
5.393,-1.875,0,0,0,0,0
5.394,-1.5625,0,0,0,0,0
5.395,-1.25,0,0,0,0,0
5.396,-1.5625,0,0,0,0,0
5.397,-1.875,0,0,0,0,0
5.398,-1.5625,0,0,0,0,0
5.399,-1.25,0,0,0,0,0
5.4,-1.25,0,0,0,0,0
5.401,-1.25,0,0,0,0,0
5.402,-1.25,0,0,0,0,0
5.403,-1.25,0,0,0,0,0
5.404,-1.25,0,0,0,0,0
5.405,-1.25,0,0,0,0,0
5.406,-0.9375,0,0,0,0,0
5.407,-0.625,0,0,0,0,0
5.408,-0.625,0,0,0,0,0
5.409,-0.625,0,0,0,0,0
5.41,0,0,0,0,0,0
5.411,0.625,0,0,0,0,0
5.412,0,0,0,0,0,0
5.413,0,0,0,0,0,0
5.414,0,0,0,0,0,0
5.415,0,0,0,0,0,0
5.416,-0.625,0,0,0,0,0
5.417,-0.625,0,0,0,0,0
5.418,-1.5625,0,0,0,0,0
5.419,-1.875,0,0,0,0,0
5.42,-1.25,0,0,0,0,0
5.421,-1.25,0,0,0,0,0
5.422,-0.9375,0,0,0,0,0
5.423,-0.625,0,0,0,0,0
5.424,-0.9375,0,0,0,0,0
5.425,-0.625,0,0,0,0,0
5.426,-1.25,0,0,0,0,0
5.427,-1.25,0,0,0,0,0
5.428,-1.5625,0,0,0,0,0
5.429,-1.875,0,0,0,0,0
5.43,-1.5625,0,0,0,0,0
5.431,-1.875,0,0,0,0,0
5.432,-2.5,0,0,0,0,0
5.433,-1.875,0,0,0,0,0
5.434,-2.8125,0,0,0,0,0
5.435,-3.125,0,0,0,0,0
5.436,-2.5,0,0,0,0,0
5.437,-3.125,0,0,0,0,0
5.438,-2.1875,0,0,0,0,0
5.439,-2.5,0,0,0,0,0
5.44,-1.5625,0,0,0,0,0
5.441,-1.25,0,0,0,0,0
5.442,-1.5625,0,0,0,0,0
5.443,-1.875,0,0,0,0,0
5.444,-2.5,0,0,0,0,0
5.445,-1.875,0,0,0,0,0
5.446,-2.5,0,0,0,0,0
5.447,-2.5,0,0,0,0,0
5.448,-1.875,0,0,0,0,0
5.449,-1.875,0,0,0,0,0
5.45,-1.875,0,0,0,0,0
5.451,-1.875,0,0,0,0,0
5.452,-1.5625,0,0,0,0,0
5.453,-1.875,0,0,0,0,0
5.454,-2.1875,0,0,0,0,0
5.455,-1.875,0,0,0,0,0
5.456,-1.875,0,0,0,0,0
