0,3.4375,0,0,0,0,0
0.001,3.125,0,0,0,0,0
0.002,3,0,0,0,0,0
0.003,3.125,0,0,0,0,0
0.004,4.6875,0,0,0,0,0
0.005,7.1875,0,0,0,0,0
0.006,6.875,0,0,0,0,0
0.007,6.875,0,0,0,0,0
0.008,6.875,0,0,0,0,0
0.009,6.875,0,0,0,0,0
0.01,6.4375,0,0,0,0,0
0.011,5.9375,0,0,0,0,0
0.012,5.8125,0,0,0,0,0
0.013,5.9375,0,0,0,0,0
0.014,5.5,0,0,0,0,0
0.015,5,0,0,0,0,0
0.016,5,0,0,0,0,0
0.017,4.6875,0,0,0,0,0
0.018,4.25,0,0,0,0,0
0.019,4.0625,0,0,0,0,0
0.02,5,0,0,0,0,0
0.021,5.625,0,0,0,0,0
0.022,6.25,0,0,0,0,0
0.023,6.875,0,0,0,0,0
0.024,6.75,0,0,0,0,0
0.025,6.5625,0,0,0,0,0
0.026,5.625,0,0,0,0,0
0.027,5.625,0,0,0,0,0
0.028,5.75,0,0,0,0,0
0.029,5.625,0,0,0,0,0
0.03,4.875,0,0,0,0,0
0.031,4.6875,0,0,0,0,0
0.032,5,0,0,0,0,0
0.033,5,0,0,0,0,0
0.034,5.125,0,0,0,0,0
0.035,5.3125,0,0,0,0,0
0.036,5.5,0,0,0,0,0
0.037,5.3125,0,0,0,0,0
0.038,5.1875,0,0,0,0,0
0.039,5,0,0,0,0,0
0.04,5.9375,0,0,0,0,0
0.041,6.5625,0,0,0,0,0
0.042,7.1875,0,0,0,0,0
0.043,7.1875,0,0,0,0,0
0.044,7.5,0,0,0,0,0
0.045,7.5,0,0,0,0,0
0.046,6.5625,0,0,0,0,0
0.047,6.25,0,0,0,0,0
0.048,5.5,0,0,0,0,0
0.049,4.375,0,0,0,0,0
0.05,4.6875,0,0,0,0,0
0.051,4.6875,0,0,0,0,0
0.052,4.5625,0,0,0,0,0
0.053,4.6875,0,0,0,0,0
0.054,4.375,0,0,0,0,0
0.055,4.375,0,0,0,0,0
0.056,5,0,0,0,0,0
0.057,4.6875,0,0,0,0,0
0.058,4.6875,0,0,0,0,0
0.059,4.6875,0,0,0,0,0
0.06,4.6875,0,0,0,0,0
0.061,4.6875,0,0,0,0,0
0.062,4.5625,0,0,0,0,0
0.063,4.375,0,0,0,0,0
0.064,4.8125,0,0,0,0,0
0.065,5.625,0,0,0,0,0
0.066,6.375,0,0,0,0,0
0.067,7.5,0,0,0,0,0
0.068,6.75,0,0,0,0,0
0.069,6.5625,0,0,0,0,0
0.07,6.125,0,0,0,0,0
0.071,5.3125,0,0,0,0,0
0.072,5.1875,0,0,0,0,0
0.073,5.3125,0,0,0,0,0
0.074,5,0,0,0,0,0
0.075,5,0,0,0,0,0
0.076,4.5625,0,0,0,0,0
0.077,4.0625,0,0,0,0,0
0.078,3.4375,0,0,0,0,0
0.079,3.125,0,0,0,0,0
0.08,2.8125,0,0,0,0,0
0.081,1.5625,0,0,0,0,0
0.082,2.8125,0,0,0,0,0
0.083,4.6875,0,0,0,0,0
0.084,5.625,0,0,0,0,0
0.085,7.1875,0,0,0,0,0
0.086,6.5625,0,0,0,0,0
0.087,5.9375,0,0,0,0,0
0.088,4.6875,0,0,0,0,0
0.089,4.0625,0,0,0,0,0
0.09,3.9375,0,0,0,0,0
0.091,3.75,0,0,0,0,0
0.092,4.1875,0,0,0,0,0
0.093,4.6875,0,0,0,0,0
0.094,5.125,0,0,0,0,0
0.095,5.3125,0,0,0,0,0
0.096,5.75,0,0,0,0,0
0.097,6.25,0,0,0,0,0
0.098,5.9375,0,0,0,0,0
0.099,5.9375,0,0,0,0,0
0.1,6.375,0,0,0,0,0
0.101,6.5625,0,0,0,0,0
0.102,7,0,0,0,0,0
0.103,6.875,0,0,0,0,0
0.104,6.125,0,0,0,0,0
0.105,5.3125,0,0,0,0,0
0.106,3.625,0,0,0,0,0
0.107,2.8125,0,0,0,0,0
0.108,4.5,0,0,0,0,0
0.109,5.625,0,0,0,0,0
0.11,5.9375,0,0,0,0,0
0.111,6.875,0,0,0,0,0
0.112,6.875,0,0,0,0,0
0.113,6.875,0,0,0,0,0
0.114,6.25,0,0,0,0,0
0.115,6.5625,0,0,0,0,0
0.116,6.4375,0,0,0,0,0
0.117,5.9375,0,0,0,0,0
0.118,6.0625,0,0,0,0,0
0.119,6.25,0,0,0,0,0
0.12,5.625,0,0,0,0,0
0.121,5.9375,0,0,0,0,0
0.122,5.8125,0,0,0,0,0
0.123,6.25,0,0,0,0,0
0.124,5.8125,0,0,0,0,0
0.125,6.25,0,0,0,0,0
0.126,5.3125,0,0,0,0,0
0.127,5.9375,0,0,0,0,0
0.128,5.625,0,0,0,0,0
0.129,5.625,0,0,0,0,0
0.13,5,0,0,0,0,0
0.131,4.375,0,0,0,0,0
0.132,4.375,0,0,0,0,0
0.133,4.375,0,0,0,0,0
0.134,4.375,0,0,0,0,0
0.135,4.375,0,0,0,0,0
0.136,4.1875,0,0,0,0,0
0.137,4.0625,0,0,0,0,0
0.138,4.0625,0,0,0,0,0
0.139,4.0625,0,0,0,0,0
0.14,4.875,0,0,0,0,0
0.141,4.6875,0,0,0,0,0
0.142,4.875,0,0,0,0,0
0.143,4.6875,0,0,0,0,0
0.144,5.125,0,0,0,0,0
0.145,5.625,0,0,0,0,0
0.146,5.9375,0,0,0,0,0
0.147,6.5625,0,0,0,0,0
0.148,7,0,0,0,0,0
0.149,6.5625,0,0,0,0,0
0.15,6.125,0,0,0,0,0
0.151,5.625,0,0,0,0,0
0.152,6.4375,0,0,0,0,0
0.153,6.25,0,0,0,0,0
0.154,5.8125,0,0,0,0,0
0.155,5.9375,0,0,0,0,0
0.156,5.9375,0,0,0,0,0
0.157,7.1875,0,0,0,0,0
0.158,6.875,0,0,0,0,0
0.159,6.875,0,0,0,0,0
0.16,6.75,0,0,0,0,0
0.161,7.1875,0,0,0,0,0
0.162,6.875,0,0,0,0,0
0.163,6.875,0,0,0,0,0
0.164,7.1875,0,0,0,0,0
0.165,7.5,0,0,0,0,0
0.166,7.0625,0,0,0,0,0
0.167,6.25,0,0,0,0,0
0.168,6.375,0,0,0,0,0
0.169,7.1875,0,0,0,0,0
0.17,7.0625,0,0,0,0,0
0.171,7.5,0,0,0,0,0
0.172,8.125,0,0,0,0,0
0.173,8.75,0,0,0,0,0
0.174,8.3125,0,0,0,0,0
0.175,8.125,0,0,0,0,0
0.176,8.9375,0,0,0,0,0
0.177,8.75,0,0,0,0,0
0.178,8.75,0,0,0,0,0
0.179,8.75,0,0,0,0,0
0.18,8.625,0,0,0,0,0
0.181,7.5,0,0,0,0,0
0.182,7.3125,0,0,0,0,0
0.183,7.5,0,0,0,0,0
0.184,7.1875,0,0,0,0,0
0.185,6.5625,0,0,0,0,0
0.186,8.125,0,0,0,0,0
0.187,8.125,0,0,0,0,0
0.188,8.875,0,0,0,0,0
0.189,10,0,0,0,0,0
0.19,9.8125,0,0,0,0,0
0.191,9.6875,0,0,0,0,0
0.192,9.6875,0,0,0,0,0
0.193,10,0,0,0,0,0
0.194,10.125,0,0,0,0,0
0.195,10,0,0,0,0,0
0.196,10,0,0,0,0,0
0.197,9.375,0,0,0,0,0
0.198,9.375,0,0,0,0,0
0.199,8.75,0,0,0,0,0
0.2,8.875,0,0,0,0,0
0.201,8.75,0,0,0,0,0
0.202,8.5625,0,0,0,0,0
0.203,9.0625,0,0,0,0,0
0.204,9.8125,0,0,0,0,0
0.205,10.938,0,0,0,0,0
0.206,10,0,0,0,0,0
0.207,10,0,0,0,0,0
0.208,11.563,0,0,0,0,0
0.209,12.813,0,0,0,0,0
0.21,12.188,0,0,0,0,0
0.211,12.5,0,0,0,0,0
0.212,11.438,0,0,0,0,0
0.213,10.625,0,0,0,0,0
0.214,10.5,0,0,0,0,0
0.215,10,0,0,0,0,0
0.216,10.313,0,0,0,0,0
0.217,9.6875,0,0,0,0,0
0.218,8.9375,0,0,0,0,0
0.219,8.75,0,0,0,0,0
0.22,10,0,0,0,0,0
0.221,11.25,0,0,0,0,0
0.222,10.625,0,0,0,0,0
0.223,10.625,0,0,0,0,0
0.224,9.875,0,0,0,0,0
0.225,9.6875,0,0,0,0,0
0.226,8.4375,0,0,0,0,0
0.227,7.5,0,0,0,0,0
0.228,7.625,0,0,0,0,0
0.229,8.4375,0,0,0,0,0
0.23,7.375,0,0,0,0,0
0.231,6.5625,0,0,0,0,0
0.232,7,0,0,0,0,0
0.233,7.1875,0,0,0,0,0
0.234,5.8125,0,0,0,0,0
0.235,4.0625,0,0,0,0,0
0.236,4.0625,0,0,0,0,0
0.237,3.75,0,0,0,0,0
0.238,4.1875,0,0,0,0,0
0.239,4.6875,0,0,0,0,0
0.24,5,0,0,0,0,0
0.241,4.6875,0,0,0,0,0
0.242,5,0,0,0,0,0
0.243,5.3125,0,0,0,0,0
0.244,4.25,0,0,0,0,0
0.245,4.0625,0,0,0,0,0
0.246,3.75,0,0,0,0,0
0.247,2.8125,0,0,0,0,0
0.248,3.125,0,0,0,0,0
0.249,4.0625,0,0,0,0,0
0.25,3.875,0,0,0,0,0
0.251,4.0625,0,0,0,0,0
0.252,3.75,0,0,0,0,0
0.253,4.0625,0,0,0,0,0
0.254,4.0625,0,0,0,0,0
0.255,3.4375,0,0,0,0,0
0.256,4.1875,0,0,0,0,0
0.257,4.6875,0,0,0,0,0
0.258,4.375,0,0,0,0,0
0.259,3.4375,0,0,0,0,0
0.26,3.5625,0,0,0,0,0
0.261,3.75,0,0,0,0,0
0.262,3.875,0,0,0,0,0
0.263,3.75,0,0,0,0,0
0.264,3.25,0,0,0,0,0
0.265,3.75,0,0,0,0,0
0.266,3.3125,0,0,0,0,0
0.267,3.4375,0,0,0,0,0
0.268,2.5,0,0,0,0,0
0.269,1.875,0,0,0,0,0
0.27,2.1875,0,0,0,0,0
0.271,2.5,0,0,0,0,0
0.272,3.25,0,0,0,0,0
0.273,4.0625,0,0,0,0,0
0.274,3.5625,0,0,0,0,0
0.275,3.4375,0,0,0,0,0
0.276,3.4375,0,0,0,0,0
0.277,3.125,0,0,0,0,0
0.278,3.4375,0,0,0,0,0
0.279,3.125,0,0,0,0,0
0.28,3.4375,0,0,0,0,0
0.281,3.4375,0,0,0,0,0
0.282,3.125,0,0,0,0,0
0.283,2.8125,0,0,0,0,0
0.284,3.4375,0,0,0,0,0
0.285,3.125,0,0,0,0,0
0.286,2.8125,0,0,0,0,0
0.287,2.1875,0,0,0,0,0
0.288,2.1875,0,0,0,0,0
0.289,2.5,0,0,0,0,0
0.29,2.8125,0,0,0,0,0
0.291,2.8125,0,0,0,0,0
0.292,2.5,0,0,0,0,0
0.293,2.5,0,0,0,0,0
0.294,2.8125,0,0,0,0,0
0.295,2.5,0,0,0,0,0
0.296,3.4375,0,0,0,0,0
0.297,4.375,0,0,0,0,0
0.298,3.75,0,0,0,0,0
0.299,4.0625,0,0,0,0,0
0.3,4.25,0,0,0,0,0
0.301,4.0625,0,0,0,0,0
0.302,4.5,0,0,0,0,0
0.303,4.0625,0,0,0,0,0
0.304,4.0625,0,0,0,0,0
0.305,4.0625,0,0,0,0,0
0.306,3.4375,0,0,0,0,0
0.307,3.75,0,0,0,0,0
0.308,3.4375,0,0,0,0,0
0.309,4.0625,0,0,0,0,0
0.31,3.3125,0,0,0,0,0
0.311,2.5,0,0,0,0,0
0.312,2.5,0,0,0,0,0
0.313,2.5,0,0,0,0,0
0.314,2.9375,0,0,0,0,0
0.315,2.5,0,0,0,0,0
0.316,4.1875,0,0,0,0,0
0.317,4.375,0,0,0,0,0
0.318,4.5,0,0,0,0,0
0.319,3.75,0,0,0,0,0
0.32,3.125,0,0,0,0,0
0.321,3.4375,0,0,0,0,0
0.322,2.8125,0,0,0,0,0
0.323,3.4375,0,0,0,0,0
0.324,3,0,0,0,0,0
0.325,2.5,0,0,0,0,0
0.326,1.4375,0,0,0,0,0
0.327,0.9375,0,0,0,0,0
0.328,0.8125,1,0,0,0,0
0.329,1.25,0,0,0,0,0
0.33,2,0,0,0,0,0
0.331,2.8125,0,0,0,0,0
0.332,2.6875,0,0,0,0,0
0.333,2.5,0,0,0,0,0
0.334,2.8125,0,0,0,0,0
0.335,2.5,0,0,0,0,0
0.336,4.375,0,0,0,0,0
0.337,5.625,0,0,0,0,0
0.338,7.1875,0,0,0,0,0
0.339,8.4375,0,0,0,0,0
0.34,9.5625,0,0,0,0,0
0.341,10.313,0,0,0,0,0
0.342,10.188,0,0,0,0,0
0.343,10.625,0,0,0,0,0
0.344,11.75,0,0,0,0,0
0.345,13.125,0,0,0,0,0
0.346,13.75,0,0,0,0,0
0.347,14.688,0,0,0,0,0
0.348,16.563,0,0,0,0,0
0.349,19.063,0,0,0,0,0
0.35,20.813,0,0,0,0,0
0.351,22.813,0,0,0,0,0
0.352,25.313,0,0,0,0,0
0.353,27.5,0,0,0,0,0
0.354,30,0,0,0,0,0
0.355,31.875,0,0,0,0,0
0.356,34.688,0,0,0,0,0
0.357,37.5,0,0,0,0,0
0.358,40.625,0,0,0,0,0
0.359,43.75,0,0,0,0,0
0.36,45.938,0,0,0,0,0
0.361,47.188,0,0,0,0,0
0.362,48.563,0,0,0,0,0
0.363,50,0,0,0,0,0
0.364,51.125,0,0,0,0,0
0.365,51.25,0,0,0,0,0
0.366,50,0,0,0,0,0
0.367,48.438,0,0,0,0,0
0.368,46.563,0,1,0,0,0
0.369,44.063,0,0,0,0,0
0.37,40.625,0,0,0,0,0
0.371,37.813,0,0,0,0,0
0.372,35.125,0,0,0,0,0
0.373,30.938,0,0,0,0,0
0.374,24.063,0,0,0,0,0
0.375,18.125,0,0,0,0,0
0.376,12.5,0,0,0,0,0
0.377,7.5,0,0,0,0,0
0.378,3.75,0,0,0,0,0
0.379,-0.625,0,0,0,0,0
0.38,-4.25,0,0,0,0,0
0.381,-6.5625,0,0,0,0,0
0.382,-10.75,0,0,0,0,0
0.383,-13.438,0,0,0,0,0
0.384,-15.313,0,0,0,0,0
0.385,-16.875,0,0,0,0,0
0.386,-18.938,0,0,0,0,0
0.387,-21.25,0,0,0,0,0
0.388,-23.438,0,0,0,0,0
0.389,-24.688,0,0,0,0,0
0.39,-25.313,0,0,0,0,0
0.391,-26.563,0,0,0,0,0
0.392,-27.5,0,0,0,0,0
0.393,-28.125,0,0,0,0,0
0.394,-27.625,0,0,0,0,0
0.395,-26.563,0,0,0,0,0
0.396,-25.938,0,0,0,0,0
0.397,-24.063,0,0,0,0,0
0.398,-22.5,0,0,0,0,0
0.399,-20.938,0,0,0,0,0
0.4,-20.188,0,0,0,0,0
0.401,-19.375,0,0,0,0,0
0.402,-18.313,0,0,0,0,0
0.403,-17.813,0,0,0,0,0
0.404,-17.063,0,0,0,0,0
0.405,-16.25,0,0,0,0,0
0.406,-15.625,0,0,0,0,0
0.407,-15,0,0,0,0,0
0.408,-14.375,0,0,0,0,0
0.409,-13.75,0,0,0,0,0
0.41,-13.875,0,0,0,0,0
0.411,-13.75,0,0,0,0,0
0.412,-13,0,0,0,0,0
0.413,-12.813,0,0,0,0,0
0.414,-13.125,0,0,0,0,0
0.415,-12.5,0,0,0,0,0
0.416,-11.125,0,0,0,0,0
0.417,-9.6875,0,0,0,0,0
0.418,-10.125,0,0,0,0,0
0.419,-10.625,0,0,0,0,0
0.42,-11.875,0,0,0,0,0
0.421,-12.813,0,0,0,0,0
0.422,-11.438,0,0,0,0,0
0.423,-9.375,0,0,0,0,0
0.424,-9.375,0,0,0,0,0
0.425,-9.0625,0,0,0,0,0
0.426,-9.5,0,0,0,0,0
0.427,-10,0,0,0,0,0
0.428,-10.625,0,0,0,0,0
0.429,-10.625,0,0,0,0,0
0.43,-10.938,0,0,0,0,0
0.431,-11.875,0,0,0,0,0
0.432,-10.938,0,0,0,0,0
0.433,-10.938,0,0,0,0,0
0.434,-11.25,0,0,0,0,0
0.435,-10.625,0,0,0,0,0
0.436,-10.938,0,0,0,0,0
0.437,-10.313,0,0,0,0,0
0.438,-10.75,0,0,0,0,0
0.439,-11.25,0,0,0,0,0
0.44,-10.938,0,0,0,0,0
0.441,-10.313,0,0,0,0,0
0.442,-9.5625,0,0,0,0,0
0.443,-9.375,0,0,0,0,0
0.444,-9.375,0,0,0,0,0
0.445,-9.6875,0,0,0,0,0
0.446,-10.625,0,0,0,0,0
0.447,-10.938,0,0,0,0,0
0.448,-11.375,0,0,0,0,0
0.449,-12.188,0,0,0,0,0
0.45,-12.313,0,0,0,0,0
0.451,-12.5,0,0,0,0,0
0.452,-11.438,0,0,0,0,0
0.453,-10.313,0,0,0,0,0
0.454,-10.313,0,0,0,0,0
0.455,-10.313,0,0,0,0,0
0.456,-10.438,0,0,0,0,0
0.457,-10.313,0,0,0,0,0
0.458,-10.625,0,0,0,0,0
0.459,-10.313,0,0,0,0,0
0.46,-10.438,0,0,0,0,0
0.461,-10,0,0,0,0,0
0.462,-8.9375,0,0,0,0,0
0.463,-7.5,0,0,0,0,0
0.464,-6.5625,0,0,0,0,0
0.465,-6.25,0,0,0,0,0
0.466,-5.9375,0,0,0,0,0
0.467,-5.9375,0,0,0,0,0
0.468,-5.125,0,0,0,0,0
0.469,-4.6875,0,0,0,0,0
0.47,-4.1875,0,0,0,0,0
0.471,-4.0625,0,0,0,0,0
0.472,-3.3125,0,0,0,0,0
0.473,-2.8125,0,0,0,0,0
0.474,-2.5,0,0,0,0,0
0.475,-1.25,0,0,0,0,0
0.476,-0.9375,0,0,0,0,0
0.477,-0.9375,0,0,0,0,0
0.478,-1.375,0,0,0,0,0
0.479,-1.5625,0,0,0,0,0
0.48,-0.9375,0,0,0,0,0
0.481,-0.3125,0,0,0,0,0
0.482,0.125,0,0,0,0,0
0.483,0.625,0,0,0,0,0
0.484,0.9375,0,0,0,0,0
0.485,0.625,0,0,0,0,0
0.486,1.375,0,0,0,0,0
0.487,1.875,0,0,0,0,0
0.488,2.375,0,0,0,0,0
0.489,2.1875,0,0,0,0,0
0.49,2.1875,0,0,0,0,0
0.491,2.5,0,0,0,0,0
0.492,2.625,0,0,0,0,0
0.493,3.75,0,0,0,0,0
0.494,4.375,0,0,1,0,0
0.495,5.3125,0,0,0,0,0
0.496,5,0,0,0,0,0
0.497,5,0,0,0,0,0
0.498,5,0,0,0,0,0
0.499,5,0,0,0,0,0
0.5,5.625,0,0,0,0,0
0.501,5.625,0,0,0,0,0
0.502,4.5625,0,0,0,0,0
0.503,4.375,0,0,0,0,0
0.504,4.875,0,0,0,0,0
0.505,4.0625,0,0,0,0,0
0.506,3.625,0,0,0,0,0
0.507,3.4375,0,0,0,0,0
0.508,4.1875,0,0,0,0,0
0.509,4.375,0,0,0,0,0
0.51,4.1875,0,0,0,0,0
0.511,4.375,0,0,0,0,0
0.512,5.75,0,0,0,0,0
0.513,6.5625,0,0,0,0,0
0.514,5.8125,0,0,0,0,0
0.515,5.625,0,0,0,0,0
0.516,5,0,0,0,0,0
0.517,5.625,0,0,0,0,0
0.518,5,0,0,0,0,0
0.519,5.3125,0,0,0,0,0
0.52,5.75,0,0,0,0,0
0.521,5.9375,0,0,0,0,0
0.522,5,0,0,0,0,0
0.523,4.375,0,0,0,0,0
0.524,4.25,0,0,0,0,0
0.525,4.6875,0,0,0,0,0
0.526,3.75,0,0,0,0,0
0.527,3.125,0,0,0,0,0
0.528,5.625,0,0,0,0,0
0.529,7.8125,0,0,0,0,0
0.53,7.5,0,0,0,0,0
0.531,7.1875,0,0,0,0,0
0.532,7.5,0,0,0,0,0
0.533,7.1875,0,0,0,0,0
0.534,6.75,0,0,0,0,0
0.535,6.5625,0,0,0,0,0
0.536,6.875,0,0,0,0,0
0.537,6.875,0,0,0,0,0
0.538,6.25,0,0,0,0,0
0.539,5.625,0,0,0,0,0
0.54,5.75,0,0,0,0,0
0.541,5.625,0,0,0,0,0
0.542,6.0625,0,0,0,0,0
0.543,6.25,0,0,0,0,0
0.544,5.9375,0,0,0,0,0
0.545,6.25,0,0,0,0,0
0.546,5.8125,0,0,0,0,0
0.547,5.3125,0,0,0,0,0
0.548,4.6875,0,0,0,0,0
0.549,4.0625,0,0,0,0,0
0.55,5,0,0,0,0,0
0.551,5.3125,0,0,0,0,0
0.552,5.5,0,0,0,0,0
0.553,5,0,0,0,0,0
0.554,5.1875,0,0,0,0,0
0.555,5.3125,0,0,0,0,0
0.556,5.9375,0,0,0,0,0
0.557,7.1875,0,0,0,0,0
0.558,8.25,0,0,0,0,0
0.559,8.75,0,0,0,0,0
0.56,8.25,0,0,0,0,0
0.561,8.125,0,0,0,0,0
0.562,7.6875,0,0,0,0,0
0.563,6.875,0,0,0,0,0
0.564,6.75,0,0,0,0,0
0.565,6.875,0,0,0,0,0
0.566,7.9375,0,0,0,0,0
0.567,8.125,0,0,0,0,0
0.568,8,0,0,0,0,0
0.569,7.8125,0,0,0,0,0
0.57,7.1875,0,0,0,0,0
0.571,6.5625,0,0,0,0,0
0.572,6.125,0,0,0,0,0
0.573,5.9375,0,0,0,0,0
0.574,5.625,0,0,0,0,0
0.575,5.625,0,0,0,0,0
0.576,5,0,0,0,0,0
0.577,5.3125,0,0,0,0,0
0.578,5.8125,0,0,0,0,0
0.579,5.9375,0,0,0,0,0
0.58,5.75,0,0,0,0,0
0.581,5.9375,0,0,0,0,0
0.582,4.875,0,0,0,0,0
0.583,4.6875,0,0,0,0,0
0.584,4.25,0,0,0,0,0
0.585,4.0625,0,0,0,0,0
0.586,4.6875,0,0,0,0,0
0.587,5,0,0,0,0,0
0.588,5.625,0,0,0,0,0
0.589,7.1875,0,0,0,0,0
0.59,6.875,0,0,0,0,0
0.591,6.25,0,0,0,0,0
0.592,5.8125,0,0,0,0,0
0.593,5.625,0,0,0,0,0
0.594,6.375,0,0,0,0,0
0.595,6.25,0,0,0,0,0
0.596,6.875,0,0,0,0,0
0.597,7.5,0,0,0,0,0
0.598,7.0625,0,0,0,0,0
0.599,6.5625,0,0,0,0,0
0.6,7.3125,0,0,0,0,0
0.601,7.8125,0,0,0,0,0
0.602,8.25,0,0,0,0,0
0.603,8.4375,0,0,0,0,0
0.604,9.375,0,0,0,0,0
0.605,9.6875,0,0,0,0,0
0.606,9.875,0,0,0,0,0
0.607,9.6875,0,0,0,0,0
0.608,10.188,0,0,0,0,0
0.609,10,0,0,0,0,0
0.61,10.313,0,0,0,0,0
0.611,10,0,0,0,0,0
0.612,8.75,0,0,0,0,0
0.613,7.8125,0,0,0,0,0
0.614,7.375,0,0,0,0,0
0.615,7.5,0,0,0,0,0
0.616,8.25,0,0,0,0,0
0.617,8.75,0,0,0,0,0
0.618,8,0,0,0,0,0
0.619,6.5625,0,0,0,0,0
0.62,7.0625,0,0,0,0,0
0.621,6.875,0,0,0,0,0
0.622,7.1875,0,0,0,0,0
0.623,7.1875,0,0,0,0,0
0.624,7.8125,0,0,0,0,0
0.625,8.125,0,0,0,0,0
0.626,8.75,0,0,0,0,0
0.627,9.0625,0,0,0,0,0
0.628,10,0,0,0,0,0
0.629,10.938,0,0,0,0,0
0.63,10.188,0,0,0,0,0
0.631,9.375,0,0,0,0,0
0.632,9.0625,0,0,0,0,0
0.633,9.0625,0,0,0,0,0
0.634,9.5,0,0,0,0,0
0.635,9.375,0,0,0,0,0
0.636,9.375,0,0,0,0,0
0.637,9.375,0,0,0,0,0
0.638,9.25,0,0,0,0,0
0.639,9.375,0,0,0,0,0
0.64,10,0,0,0,0,0
0.641,10.313,0,0,0,0,0
0.642,10.938,0,0,0,0,0
0.643,11.563,0,0,0,0,0
0.644,12.313,0,0,0,0,0
0.645,12.813,0,0,0,0,0
0.646,11.875,0,0,0,0,0
0.647,10.625,0,0,0,0,0
0.648,10.313,0,0,0,0,0
0.649,10,0,0,0,0,0
0.65,10.938,0,0,0,0,0
0.651,10.938,0,0,0,0,0
0.652,10.313,0,0,0,0,0
0.653,10.625,0,0,0,0,0
0.654,10,0,0,0,0,0
0.655,9.6875,0,0,0,0,0
0.656,9.5,0,0,0,0,0
0.657,9.6875,0,0,0,0,0
0.658,10.75,0,0,0,0,0
0.659,11.875,0,0,0,0,0
0.66,11.875,0,0,0,0,0
0.661,11.875,0,0,0,0,0
0.662,12.063,0,0,0,0,0
0.663,11.875,0,0,0,0,0
0.664,12.313,0,0,0,0,0
0.665,12.813,0,0,0,0,0
0.666,12.813,0,0,0,0,0
0.667,12.813,0,0,0,0,0
0.668,12.063,0,0,0,0,0
0.669,11.25,0,0,0,0,0
0.67,10.813,0,0,0,0,0
0.671,10.938,0,0,0,0,0
0.672,11.563,0,0,0,0,0
0.673,11.563,0,0,0,0,0
0.674,11.25,0,0,0,0,0
0.675,11.875,0,0,0,0,0
0.676,11.688,0,0,0,0,0
0.677,12.813,0,0,0,0,0
0.678,11.875,0,0,0,0,0
0.679,10.938,0,0,0,0,0
0.68,11.563,0,0,0,0,0
0.681,12.813,0,0,0,0,0
0.682,13.25,0,0,0,0,0
0.683,13.75,0,0,0,0,0
0.684,13.125,0,0,0,0,0
0.685,11.563,0,0,0,0,0
0.686,11.25,0,0,0,1,0
0.687,10.938,0,0,0,0,0
0.688,11.25,0,0,0,0,0
0.689,11.875,0,0,0,0,0
0.69,13.125,0,0,0,0,0
0.691,14.063,0,0,0,0,0
0.692,13.75,0,0,0,0,0
0.693,13.75,0,0,0,0,0
0.694,13.313,0,0,0,0,0
0.695,12.5,0,0,0,0,0
0.696,12.375,0,0,0,0,0
0.697,12.188,0,0,0,0,0
0.698,12.188,0,0,0,0,0
0.699,11.875,0,0,0,0,0
0.7,12.188,0,0,0,0,0
0.701,11.563,0,0,0,0,0
0.702,11.438,0,0,0,0,0
0.703,10.625,0,0,0,0,0
0.704,10,0,0,0,0,0
0.705,9.375,0,0,0,0,0
0.706,9.5,0,0,0,0,0
0.707,9.6875,0,0,0,0,0
0.708,10.938,0,0,0,0,0
0.709,11.25,0,0,0,0,0
0.71,10.938,0,0,0,0,0
0.711,10.313,0,0,0,0,0
0.712,9.6875,0,0,0,0,0
0.713,8.75,0,0,0,0,0
0.714,9.5,0,0,0,0,0
0.715,9.6875,0,0,0,0,0
0.716,9.8125,0,0,0,0,0
0.717,10,0,0,0,0,0
0.718,10.5,0,0,0,0,0
0.719,10.625,0,0,0,0,0
0.72,9.875,0,0,0,0,0
0.721,9.375,0,0,0,0,0
0.722,8.9375,0,0,0,0,0
0.723,8.125,0,0,0,0,0
0.724,8.125,0,0,0,0,0
0.725,8.125,0,0,0,0,0
0.726,7.9375,0,0,0,0,0
0.727,8.125,0,0,0,0,0
0.728,8.5625,0,0,0,0,0
0.729,9.0625,0,0,0,0,0
0.73,8.3125,0,0,0,0,0
0.731,8.4375,0,0,0,0,0
0.732,7.5,0,0,0,0,0
0.733,6.5625,0,0,0,0,0
0.734,6.4375,0,0,0,0,0
0.735,5.9375,0,0,0,0,0
0.736,6.5625,0,0,0,0,0
0.737,6.25,0,0,0,0,0
0.738,6.0625,0,0,0,0,0
0.739,5.9375,0,0,0,0,0
0.74,6.125,0,0,0,0,0
0.741,5.9375,0,0,0,0,0
0.742,5.9375,0,0,0,0,0
0.743,5.9375,0,0,0,0,0
0.744,5.75,0,0,0,0,0
0.745,5.625,0,0,0,0,0
0.746,5.3125,0,0,0,0,0
0.747,4.6875,0,0,0,0,0
0.748,5,0,0,0,0,0
0.749,5,0,0,0,0,0
0.75,5.9375,0,0,0,0,0
0.751,5.9375,0,0,0,0,0
0.752,5.3125,0,0,0,0,0
0.753,5.3125,0,0,0,0,0
0.754,5.1875,0,0,0,0,0
0.755,5.3125,0,0,0,0,0
0.756,5.4375,0,0,0,0,0
0.757,5.625,0,0,0,0,0
0.758,5.75,0,0,0,0,0
0.759,5.9375,0,0,0,0,0
0.76,6.375,0,0,0,0,0
0.761,5.9375,0,0,0,0,0
0.762,5.3125,0,0,0,0,0
0.763,5,0,0,0,0,0
0.764,4.5625,0,0,0,0,0
0.765,4.6875,0,0,0,0,0
0.766,3.625,0,0,0,0,0
0.767,2.8125,0,0,0,0,0
0.768,3.4375,0,0,0,0,0
0.769,3.4375,0,0,0,0,0
0.77,3.5625,0,0,0,0,0
0.771,3.75,0,0,0,0,0
0.772,3.75,0,0,0,0,0
0.773,3.75,0,0,0,0,0
0.774,3.4375,0,0,0,0,0
0.775,2.8125,0,0,0,0,1
0.776,2.5,0,0,0,0,0
0.777,2.5,0,0,0,0,0
0.778,1.875,0,0,0,0,0
0.779,1.5625,0,0,0,0,0
0.78,1.4375,0,0,0,0,0
0.781,1.875,0,0,0,0,0
0.782,2.3125,0,0,0,0,0
0.783,2.5,0,0,0,0,0
0.784,3.75,0,0,0,0,0
0.785,4.6875,0,0,0,0,0
0.786,5,0,0,0,0,0
0.787,5,0,0,0,0,0
0.788,4.8125,0,0,0,0,0
0.789,4.6875,0,0,0,0,0
0.79,3.9375,0,0,0,0,0
0.791,3.4375,0,0,0,0,0
0.792,3.25,0,0,0,0,0
0.793,3.4375,0,0,0,0,0
0.794,3.3125,0,0,0,0,0
0.795,3.4375,0,0,0,0,0
0.796,3.25,0,0,0,0,0
0.797,3.125,0,0,0,0,0
0.798,3,0,0,0,0,0
0.799,2.1875,0,0,0,0,0
0.8,2.375,0,0,0,0,0
0.801,2.1875,0,0,0,0,0
0.802,1.875,0,0,0,0,0
0.803,1.875,0,0,0,0,0
0.804,3.4375,0,0,0,0,0
0.805,4.375,0,0,0,0,0
0.806,5.4375,0,0,0,0,0
0.807,7.1875,0,0,0,0,0
0.808,7.375,0,0,0,0,0
0.809,7.8125,0,0,0,0,0
0.81,6.875,0,0,0,0,0
0.811,5.625,0,0,0,0,0
0.812,4.875,0,0,0,0,0
0.813,5,0,0,0,0,0
0.814,5.3125,0,0,0,0,0
0.815,5,0,0,0,0,0
0.816,4.25,0,0,0,0,0
0.817,4.6875,0,0,0,0,0
0.818,4.375,0,0,0,0,0
0.819,4.6875,0,0,0,0,0
0.82,5,0,0,0,0,0
0.821,5,0,0,0,0,0
0.822,5.125,0,0,0,0,0
0.823,5.9375,0,0,0,0,0
0.824,6.125,0,0,0,0,0
0.825,5.9375,0,0,0,0,0
0.826,5.1875,0,0,0,0,0
0.827,5,0,0,0,0,0
0.828,4.6875,0,0,0,0,0
0.829,4.6875,0,0,0,0,0
0.83,4.25,0,0,0,0,0
0.831,3.75,0,0,0,0,0
0.832,3.5625,0,0,0,0,0
0.833,4.375,0,0,0,0,0
0.834,4.5,0,0,0,0,0
0.835,4.6875,0,0,0,0,0
0.836,4.8125,0,0,0,0,0
0.837,5,0,0,0,0,0
0.838,5,0,0,0,0,0
0.839,5,0,0,0,0,0
0.84,6.25,0,0,0,0,0
0.841,7.1875,0,0,0,0,0
0.842,7.1875,0,0,0,0,0
0.843,7.1875,0,0,0,0,0
0.844,7.3125,0,0,0,0,0
0.845,7.5,0,0,0,0,0
0.846,6.875,0,0,0,0,0
0.847,6.875,0,0,0,0,0
0.848,6.5625,0,0,0,0,0
0.849,5.625,0,0,0,0,0
0.85,5.1875,0,0,0,0,0
0.851,4.6875,0,0,0,0,0
0.852,4.5625,0,0,0,0,0
0.853,5,0,0,0,0,0
0.854,5.3125,0,0,0,0,0
0.855,5,0,0,0,0,0
0.856,5.3125,0,0,0,0,0
0.857,5.3125,0,0,0,0,0
0.858,5.4375,0,0,0,0,0
0.859,5.9375,0,0,0,0,0
0.86,5.625,0,0,0,0,0
0.861,5.625,0,0,0,0,0
0.862,6.0625,0,0,0,0,0
0.863,6.5625,0,0,0,0,0
0.864,6.25,0,0,0,0,0
0.865,5.625,0,0,0,0,0
0.866,6.0625,0,0,0,0,0
0.867,5.625,0,0,0,0,0
0.868,5.5,0,0,0,0,0
0.869,4.6875,0,0,0,0,0
0.87,4.6875,0,0,0,0,0
0.871,4.375,0,0,0,0,0
0.872,3.125,0,0,0,0,0
0.873,2.5,0,0,0,0,0
0.874,2.6875,0,0,0,0,0
0.875,3.125,0,0,0,0,0
0.876,3.25,0,0,0,0,0
0.877,3.4375,0,0,0,0,0
0.878,3.4375,0,0,0,0,0
0.879,4.375,0,0,0,0,0
0.88,4.375,0,0,0,0,0
0.881,4.0625,0,0,0,0,0
0.882,3.75,0,0,0,0,0
0.883,3.4375,0,0,0,0,0
0.884,3.5625,0,0,0,0,0
0.885,4.6875,0,0,0,0,0
0.886,5.125,0,0,0,0,0
0.887,5.9375,0,0,0,0,0
0.888,6.875,0,0,0,0,0
0.889,7.8125,0,0,0,0,0
0.89,8.5625,0,0,0,0,0
0.891,8.75,0,0,0,0,0
0.892,8,0,0,0,0,0
0.893,7.5,0,0,0,0,0
0.894,6.875,0,0,0,0,0
0.895,6.875,0,0,0,0,0
0.896,6.375,0,0,0,0,0
0.897,6.5625,0,0,0,0,0
0.898,5.9375,0,0,0,0,0
0.899,5.9375,0,0,0,0,0
0.9,6.25,0,0,0,0,0
0.901,5.3125,0,0,0,0,0
0.902,4.5625,0,0,0,0,0
0.903,4.6875,0,0,0,0,0
0.904,4.25,0,0,0,0,0
0.905,3.4375,0,0,0,0,0
0.906,4.375,0,0,0,0,0
0.907,4.6875,0,0,0,0,0
0.908,4.8125,0,0,0,0,0
0.909,4.6875,0,0,0,0,0
0.91,3.9375,0,0,0,0,0
0.911,4.0625,0,0,0,0,0
0.912,5.125,0,0,0,0,0
0.913,5.625,0,0,0,0,0
0.914,5.5,0,0,0,0,0
0.915,4.375,0,0,0,0,0
0.916,5.625,0,0,0,0,0
0.917,5,0,0,0,0,0
0.918,4.6875,0,0,0,0,0
0.919,4.0625,0,0,0,0,0
0.92,4.1875,0,0,0,0,0
0.921,5,0,0,0,0,0
0.922,5.125,0,0,0,0,0
0.923,5.3125,0,0,0,0,0
0.924,5.625,0,0,0,0,0
0.925,5.625,0,0,0,0,0
0.926,4.6875,0,0,0,0,0
0.927,4.375,0,0,0,0,0
0.928,4.25,0,0,0,0,0
0.929,4.6875,0,0,0,0,0
0.93,5,0,0,0,0,0
0.931,5.625,0,0,0,0,0
0.932,5.625,0,0,0,0,0
0.933,5.625,0,0,0,0,0
0.934,5.625,0,0,0,0,0
0.935,5.625,0,0,0,0,0
0.936,5.8125,0,0,0,0,0
0.937,5.9375,0,0,0,0,0
0.938,5.3125,0,0,0,0,0
0.939,5.3125,0,0,0,0,0
0.94,4.6875,0,0,0,0,0
0.941,5,0,0,0,0,0
0.942,5.125,0,0,0,0,0
0.943,5,0,0,0,0,0
0.944,6.5625,0,0,0,0,0
0.945,7.8125,0,0,0,0,0
0.946,9.0625,0,0,0,0,0
0.947,8.4375,0,0,0,0,0
0.948,8.125,0,0,0,0,0
0.949,8.125,0,0,0,0,0
0.95,8.3125,0,0,0,0,0
0.951,7.1875,0,0,0,0,0
0.952,6.5625,0,0,0,0,0
0.953,6.25,0,0,0,0,0
0.954,5.9375,0,0,0,0,0
0.955,5.9375,0,0,0,0,0
0.956,6.375,0,0,0,0,0
0.957,6.875,0,0,0,0,0
0.958,6.75,0,0,0,0,0
0.959,5.9375,0,0,0,0,0
0.96,6.5625,0,0,0,0,0
0.961,6.5625,0,0,0,0,0
0.962,7.8125,0,0,0,0,0
0.963,8.75,0,0,0,0,0
0.964,8.3125,0,0,0,0,0
0.965,8.75,0,0,0,0,0
0.966,8.75,0,0,0,0,0
0.967,9.0625,0,0,0,0,0
0.968,9.6875,0,0,0,0,0
0.969,10.625,0,0,0,0,0
0.97,10.625,0,0,0,0,0
0.971,10.625,0,0,0,0,0
0.972,10.625,0,0,0,0,0
0.973,10.625,0,0,0,0,0
0.974,9.875,0,0,0,0,0
0.975,10.313,0,0,0,0,0
0.976,10.313,0,0,0,0,0
0.977,10.938,0,0,0,0,0
0.978,11.375,0,0,0,0,0
0.979,11.25,0,0,0,0,0
0.98,10.188,0,0,0,0,0
0.981,9.6875,0,0,0,0,0
0.982,10.188,0,0,0,0,0
0.983,10,0,0,0,0,0
0.984,9.6875,0,0,0,0,0
0.985,10,0,0,0,0,0
0.986,10,0,0,0,0,0
0.987,10.625,0,0,0,0,0
0.988,10.438,0,0,0,0,0
0.989,10.625,0,0,0,0,0
0.99,10.188,0,0,0,0,0
0.991,9.6875,0,0,0,0,0
0.992,9.0625,0,0,0,0,0
0.993,8.125,0,0,0,0,0
0.994,9.0625,0,0,0,0,0
0.995,9.0625,0,0,0,0,0
0.996,9.25,0,0,0,0,0
0.997,9.375,0,0,0,0,0
0.998,10,0,0,0,0,0
0.999,10,0,0,0,0,0
1,9.875,0,0,0,0,0
1.001,9.0625,0,0,0,0,0
1.002,8.9375,0,0,0,0,0
1.003,8.75,0,0,0,0,0
1.004,8.5625,0,0,0,0,0
1.005,9.0625,0,0,0,0,0
1.006,8.3125,0,0,0,0,0
1.007,7.5,0,0,0,0,0
1.008,7.625,0,0,0,0,0
1.009,8.125,0,0,0,0,0
1.01,8.4375,0,0,0,0,0
1.011,8.125,0,0,0,0,0
1.012,8.125,0,0,0,0,0
1.013,7.1875,0,0,0,0,0
1.014,7.5,0,0,0,0,0
1.015,7.5,0,0,0,0,0
1.016,7.625,0,0,0,0,0
1.017,7.5,0,0,0,0,0
1.018,7.6875,0,0,0,0,0
1.019,6.875,0,0,0,0,0
1.02,6.4375,0,0,0,0,0
1.021,6.25,0,0,0,0,0
1.022,5.625,0,0,0,0,0
1.023,5.625,0,0,0,0,0
1.024,5.9375,0,0,0,0,0
1.025,5.9375,0,0,0,0,0
1.026,5.75,0,0,0,0,0
1.027,5.9375,0,0,0,0,0
1.028,5.5,0,0,0,0,0
1.029,5.3125,0,0,0,0,0
1.03,5.125,0,0,0,0,0
1.031,5.3125,0,0,0,0,0
1.032,5.9375,0,0,0,0,0
1.033,6.25,0,0,0,0,0
1.034,5.3125,0,0,0,0,0
1.035,4.375,0,0,0,0,0
1.036,4.0625,0,0,0,0,0
1.037,3.75,0,0,0,0,0
1.038,4.5,0,0,0,0,0
1.039,4.6875,0,0,0,0,0
1.04,4.6875,0,0,0,0,0
1.041,4.6875,0,0,0,0,0
1.042,4.375,0,0,0,0,0
1.043,3.4375,0,0,0,0,0
1.044,2.5,0,0,0,0,0
1.045,2.5,0,0,0,0,0
1.046,2.625,0,0,0,0,0
1.047,3.4375,0,0,0,0,0
1.048,3,0,0,0,0,0
1.049,2.5,0,0,0,0,0
1.05,1.5625,0,0,0,0,0
1.051,0.3125,0,0,0,0,0
1.052,0.125,0,0,0,0,0
1.053,0,0,0,0,0,0
1.054,2.5,0,0,0,0,0
1.055,4.375,0,0,0,0,0
1.056,5,0,0,0,0,0
1.057,5.3125,0,0,0,0,0
1.058,5.3125,0,0,0,0,0
1.059,5.3125,0,0,0,0,0
1.06,4.375,0,0,0,0,0
1.061,3.4375,0,0,0,0,0
1.062,4.375,0,0,0,0,0
1.063,4.375,0,0,0,0,0
1.064,4.1875,0,0,0,0,0
1.065,4.0625,0,0,0,0,0
1.066,2.8125,0,0,0,0,0
1.067,2.8125,0,0,0,0,0
1.068,2.6875,0,0,0,0,0
1.069,2.8125,0,0,0,0,0
1.07,2.375,0,0,0,0,0
1.071,1.875,0,0,0,0,0
1.072,1.75,0,0,0,0,0
1.073,1.875,0,0,0,0,0
1.074,1.875,0,0,0,0,0
1.075,2.5,0,0,0,0,0
1.076,2.625,0,0,0,0,0
1.077,3.125,0,0,0,0,0
1.078,3.75,0,0,0,0,0
1.079,4.375,0,0,0,0,0
1.08,4.0625,0,0,0,0,0
1.081,3.4375,0,0,0,0,0
1.082,3.3125,0,0,0,0,0
1.083,3.4375,0,0,0,0,0
1.084,3.125,0,0,0,0,0
1.085,3.125,0,0,0,0,0
1.086,3,0,0,0,0,0
1.087,2.1875,0,0,0,0,0
1.088,2.0625,0,0,0,0,0
1.089,1.875,0,0,0,0,0
1.09,0.9375,0,0,0,0,0
1.091,0.3125,1,0,0,0,0
1.092,0,0,0,0,0,0
1.093,0.625,0,0,0,0,0
1.094,2.1875,0,0,0,0,0
1.095,2.5,0,0,0,0,0
1.096,2.1875,0,0,0,0,0
1.097,1.5625,0,0,0,0,0
1.098,1.5625,0,0,0,0,0
1.099,0.625,0,0,0,0,0
1.1,1.25,0,0,0,0,0
1.101,2.5,0,0,0,0,0
1.102,2.6875,0,0,0,0,0
1.103,2.8125,0,0,0,0,0
1.104,1.875,0,0,0,0,0
1.105,2.8125,0,0,0,0,0
1.106,3.75,0,0,0,0,0
1.107,5,0,0,0,0,0
1.108,4.6875,0,0,0,0,0
1.109,4.6875,0,0,0,0,0
1.11,3.75,0,0,0,0,0
1.111,2.1875,0,0,0,0,0
1.112,3,0,0,0,0,0
1.113,2.8125,0,0,0,0,0
1.114,3.125,0,0,0,0,0
1.115,2.8125,0,0,0,0,0
1.116,2.6875,0,0,0,0,0
1.117,2.5,0,0,0,0,0
1.118,2.8125,0,0,0,0,0
1.119,2.8125,0,0,0,0,0
1.12,3,0,0,0,0,0
1.121,3.125,0,0,0,0,0
1.122,4.5,0,0,0,0,0
1.123,5.9375,0,0,0,0,0
1.124,5.3125,0,0,0,0,0
1.125,6.25,0,0,0,0,0
1.126,6.75,0,0,0,0,0
1.127,7.5,0,0,0,0,0
1.128,8.125,0,0,0,0,0
1.129,9.375,0,0,0,0,0
1.13,10.313,0,0,0,0,0
1.131,10.625,0,0,0,0,0
1.132,11.125,0,0,0,0,0
1.133,11.875,0,0,0,0,0
1.134,14.063,0,0,0,0,0
1.135,15.625,0,0,0,0,0
1.136,15.938,0,0,0,0,0
1.137,16.25,0,0,0,0,0
1.138,17.5,0,0,0,0,0
1.139,19.063,0,0,0,0,0
1.14,22,0,0,0,0,0
1.141,25.313,0,0,0,0,0
1.142,28.875,0,0,0,0,0
1.143,32.813,0,0,0,0,0
1.144,35.438,0,1,0,0,0
1.145,38.125,0,0,0,0,0
1.146,40.625,0,0,0,0,0
1.147,43.125,0,0,0,0,0
1.148,44.688,0,0,0,0,0
1.149,46.25,0,0,0,0,0
1.15,48.125,0,0,0,0,0
1.151,49.688,0,0,0,0,0
1.152,49.563,0,0,0,0,0
1.153,49.688,0,0,0,0,0
1.154,49.563,0,0,0,0,0
1.155,48.125,0,0,0,0,0
1.156,46.438,0,0,0,0,0
1.157,44.063,0,0,0,0,0
1.158,41.25,0,0,0,0,0
1.159,37.5,0,0,0,0,0
1.16,33.313,0,0,0,0,0
1.161,28.438,0,0,0,0,0
1.162,22.813,0,0,0,0,0
1.163,15.625,0,0,0,0,0
1.164,11.875,0,0,0,0,0
1.165,9.0625,0,0,0,0,0
1.166,4.6875,0,0,0,0,0
1.167,0.3125,0,0,0,0,0
1.168,-4.0625,0,0,0,0,0
1.169,-7.8125,0,0,0,0,0
1.17,-9.375,0,0,0,0,0
1.171,-11.875,0,0,0,0,0
1.172,-13.938,0,0,0,0,0
1.173,-15.625,0,0,0,0,0
1.174,-17.313,0,0,0,0,0
1.175,-19.688,0,0,0,0,0
1.176,-22.5,0,0,0,0,0
1.177,-25,0,0,0,0,0
1.178,-25.938,0,0,0,0,0
1.179,-25.938,0,0,0,0,0
1.18,-26.75,0,0,0,0,0
1.181,-26.875,0,0,0,0,0
1.182,-26.438,0,0,0,0,0
1.183,-25.313,0,0,0,0,0
1.184,-24.063,0,0,0,0,0
1.185,-23.75,0,0,0,0,0
1.186,-22.313,0,0,0,0,0
1.187,-20.938,0,0,0,0,0
1.188,-20.125,0,0,0,0,0
1.189,-20.313,0,0,0,0,0
1.19,-20.125,0,0,0,0,0
1.191,-19.688,0,0,0,0,0
1.192,-18.938,0,0,0,0,0
1.193,-17.813,0,0,0,0,0
1.194,-17.188,0,0,0,0,0
1.195,-16.875,0,0,0,0,0
1.196,-17,0,0,0,0,0
1.197,-16.875,0,0,0,0,0
1.198,-15.313,0,0,0,0,0
1.199,-14.375,0,0,0,0,0
1.2,-13.438,0,0,0,0,0
1.201,-12.5,0,0,0,0,0
1.202,-13.25,0,0,0,0,0
1.203,-13.438,0,0,0,0,0
1.204,-12.063,0,0,0,0,0
1.205,-11.25,0,0,0,0,0
1.206,-11.063,0,0,0,0,0
1.207,-11.25,0,0,0,0,0
1.208,-10.813,0,0,0,0,0
1.209,-10.938,0,0,0,0,0
1.21,-10.938,0,0,0,0,0
1.211,-11.25,0,0,0,0,0
1.212,-11.375,0,0,0,0,0
1.213,-11.875,0,0,0,0,0
1.214,-11.563,0,0,0,0,0
1.215,-11.875,0,0,0,0,0
1.216,-12.063,0,0,0,0,0
1.217,-11.875,0,0,0,0,0
1.218,-11.563,0,0,0,0,0
1.219,-11.25,0,0,0,0,0
1.22,-11.25,0,0,0,0,0
1.221,-10.625,0,0,0,0,0
1.222,-10.313,0,0,0,0,0
1.223,-10.625,0,0,0,0,0
1.224,-10.5,0,0,0,0,0
1.225,-10.938,0,0,0,0,0
1.226,-10.313,0,0,0,0,0
1.227,-10.313,0,0,0,0,0
1.228,-11.063,0,0,0,0,0
1.229,-11.563,0,0,0,0,0
1.23,-11.563,0,0,0,0,0
1.231,-11.563,0,0,0,0,0
1.232,-11.563,0,0,0,0,0
1.233,-11.25,0,0,0,0,0
1.234,-11.125,0,0,0,0,0
1.235,-10.938,0,0,0,0,0
1.236,-10.938,0,0,0,0,0
1.237,-11.25,0,0,0,0,0
1.238,-11.563,0,0,0,0,0
1.239,-11.563,0,0,0,0,0
1.24,-11.563,0,0,0,0,0
1.241,-11.25,0,0,0,0,0
1.242,-11.563,0,0,0,0,0
1.243,-12.188,0,0,0,0,0
1.244,-12.188,0,0,0,0,0
1.245,-12.188,0,0,0,0,0
1.246,-12,0,0,0,0,0
1.247,-12.188,0,0,0,0,0
1.248,-10.813,0,0,0,0,0
1.249,-9.6875,0,0,0,0,0
1.25,-8.75,0,0,0,0,0
1.251,-8.4375,0,0,0,0,0
1.252,-8.5625,0,0,0,0,0
1.253,-8.75,0,0,0,0,0
1.254,-9.5,0,0,0,0,0
1.255,-9.0625,0,0,0,0,0
1.256,-7.375,0,0,0,0,0
1.257,-5.625,0,0,0,0,0
1.258,-4.25,0,0,0,0,0
1.259,-2.8125,0,0,0,0,0
1.26,-2.8125,0,0,0,0,0
1.261,-2.8125,0,0,0,0,0
1.262,-3.75,0,0,0,0,0
1.263,-4.6875,0,0,0,0,0
1.264,-3.75,0,0,0,0,0
1.265,-3.125,0,0,0,0,0
1.266,-2.375,0,0,0,0,0
1.267,-1.875,0,0,0,0,0
1.268,-1.125,0,0,0,0,0
1.269,0.3125,0,0,0,0,0
1.27,2,0,0,0,0,0
1.271,3.125,0,0,0,0,0
1.272,3,0,0,0,0,0
1.273,3.125,0,0,0,0,0
1.274,2.375,0,0,0,0,0
1.275,1.875,0,0,0,0,0
1.276,2.1875,0,0,0,0,0
1.277,3.125,0,0,0,0,0
1.278,3.75,0,0,1,0,0
1.279,4.375,0,0,0,0,0
1.28,4.5625,0,0,0,0,0
1.281,4.0625,0,0,0,0,0
1.282,4.375,0,0,0,0,0
1.283,4.0625,0,0,0,0,0
1.284,4.375,0,0,0,0,0
1.285,4.0625,0,0,0,0,0
1.286,3.9375,0,0,0,0,0
1.287,3.75,0,0,0,0,0
1.288,3.875,0,0,0,0,0
1.289,4.6875,0,0,0,0,0
1.29,4.6875,0,0,0,0,0
1.291,3.75,0,0,0,0,0
1.292,3.875,0,0,0,0,0
1.293,4.6875,0,0,0,0,0
1.294,4.0625,0,0,0,0,0
1.295,4.0625,0,0,0,0,0
1.296,3.9375,0,0,0,0,0
1.297,4.0625,0,0,0,0,0
1.298,4.6875,0,0,0,0,0
1.299,5,0,0,0,0,0
1.3,4.875,0,0,0,0,0
1.301,5,0,0,0,0,0
1.302,4.5625,0,0,0,0,0
1.303,4.0625,0,0,0,0,0
1.304,3.75,0,0,0,0,0
1.305,2.8125,0,0,0,0,0
1.306,4.1875,0,0,0,0,0
1.307,4.0625,0,0,0,0,0
1.308,5.125,0,0,0,0,0
1.309,6.25,0,0,0,0,0
1.31,5.9375,0,0,0,0,0
1.311,5.3125,0,0,0,0,0
1.312,5,0,0,0,0,0
1.313,4.6875,0,0,0,0,0
1.314,5.3125,0,0,0,0,0
1.315,5,0,0,0,0,0
1.316,4.875,0,0,0,0,0
1.317,5,0,0,0,0,0
1.318,4.6875,0,0,0,0,0
1.319,4.375,0,0,0,0,0
1.32,3.9375,0,0,0,0,0
1.321,3.75,0,0,0,0,0
1.322,3.4375,0,0,0,0,0
1.323,3.4375,0,0,0,0,0
1.324,3.875,0,0,0,0,0
1.325,4.375,0,0,0,0,0
1.326,4.5,0,0,0,0,0
1.327,4.375,0,0,0,0,0
1.328,4.8125,0,0,0,0,0
1.329,5.625,0,0,0,0,0
1.33,5.625,0,0,0,0,0
1.331,6.25,0,0,0,0,0
1.332,6.375,0,0,0,0,0
1.333,6.25,0,0,0,0,0
1.334,6.5625,0,0,0,0,0
1.335,6.25,0,0,0,0,0
1.336,5.625,0,0,0,0,0
1.337,5.3125,0,0,0,0,0
1.338,5.1875,0,0,0,0,0
1.339,5.3125,0,0,0,0,0
1.34,4.5625,0,0,0,0,0
1.341,4.6875,0,0,0,0,0
1.342,4.5625,0,0,0,0,0
1.343,4.6875,0,0,0,0,0
1.344,5.4375,0,0,0,0,0
1.345,5.9375,0,0,0,0,0
1.346,6.25,0,0,0,0,0
1.347,6.25,0,0,0,0,0
1.348,6.25,0,0,0,0,0
1.349,5.9375,0,0,0,0,0
1.35,5.5,0,0,0,0,0
1.351,5.3125,0,0,0,0,0
1.352,5.4375,0,0,0,0,0
1.353,5.9375,0,0,0,0,0
1.354,5.625,0,0,0,0,0
1.355,5.625,0,0,0,0,0
1.356,5,0,0,0,0,0
1.357,4.6875,0,0,0,0,0
1.358,4.6875,0,0,0,0,0
1.359,4.6875,0,0,0,0,0
1.36,4.6875,0,0,0,0,0
1.361,4.6875,0,0,0,0,0
1.362,4.5625,0,0,0,0,0
1.363,3.75,0,0,0,0,0
1.364,3.875,0,0,0,0,0
1.365,3.75,0,0,0,0,0
1.366,5.3125,0,0,0,0,0
1.367,6.875,0,0,0,0,0
1.368,7.3125,0,0,0,0,0
1.369,7.1875,0,0,0,0,0
1.37,7.3125,0,0,0,0,0
1.371,6.5625,0,0,0,0,0
1.372,5.9375,0,0,0,0,0
1.373,5.3125,0,0,0,0,0
1.374,5.3125,0,0,0,0,0
1.375,5.3125,0,0,0,0,0
1.376,6.25,0,0,0,0,0
1.377,6.875,0,0,0,0,0
1.378,7.375,0,0,0,0,0
1.379,7.1875,0,0,0,0,0
1.38,6.125,0,0,0,0,0
1.381,5.3125,0,0,0,0,0
1.382,6.0625,0,0,0,0,0
1.383,7.1875,0,0,0,0,0
1.384,7.1875,0,0,0,0,0
1.385,7.1875,0,0,0,0,0
1.386,6.875,0,0,0,0,0
1.387,6.875,0,0,0,0,0
1.388,6.875,0,0,0,0,0
1.389,6.875,0,0,0,0,0
1.39,6.6875,0,0,0,0,0
1.391,6.875,0,0,0,0,0
1.392,6.5625,0,0,0,0,0
1.393,7.1875,0,0,0,0,0
1.394,8.125,0,0,0,0,0
1.395,9.375,0,0,0,0,0
1.396,9.0625,0,0,0,0,0
1.397,9.375,0,0,0,0,0
1.398,8.4375,0,0,0,0,0
1.399,7.8125,0,0,0,0,0
1.4,7.375,0,0,0,0,0
1.401,7.1875,0,0,0,0,0
1.402,7.5,0,0,0,0,0
1.403,7.1875,0,0,0,0,0
1.404,8.125,0,0,0,0,0
1.405,9.0625,0,0,0,0,0
1.406,8.625,0,0,0,0,0
1.407,8.4375,0,0,0,0,0
1.408,8,0,0,0,0,0
1.409,8.4375,0,0,0,0,0
1.41,9.0625,0,0,0,0,0
1.411,9.6875,0,0,0,0,0
1.412,9.5,0,0,0,0,0
1.413,9.6875,0,0,0,0,0
1.414,8.4375,0,0,0,0,0
1.415,7.8125,0,0,0,0,0
1.416,7.5,0,0,0,0,0
1.417,7.5,0,0,0,0,0
1.418,7.8125,0,0,0,0,0
1.419,7.8125,0,0,0,0,0
1.42,7.9375,0,0,0,0,0
1.421,7.8125,0,0,0,0,0
1.422,7.5,0,0,0,0,0
1.423,7.5,0,0,0,0,0
1.424,7.0625,0,0,0,0,0
1.425,6.875,0,0,0,0,0
1.426,6.75,0,0,0,0,0
1.427,6.5625,0,0,0,0,0
1.428,7.3125,0,0,0,0,0
1.429,8.4375,0,0,0,0,0
1.43,9.0625,0,0,0,0,0
1.431,9.6875,0,0,0,0,0
1.432,10.438,0,0,0,0,0
1.433,10.625,0,0,0,0,0
1.434,10.125,0,0,0,0,0
1.435,10.313,0,0,0,0,0
1.436,9.6875,0,0,0,0,0
1.437,10,0,0,0,0,0
1.438,9.875,0,0,0,0,0
1.439,10,0,0,0,0,0
1.44,10.625,0,0,0,0,0
1.441,10.625,0,0,0,0,0
1.442,10.938,0,0,0,0,0
1.443,10.938,0,0,0,0,0
1.444,11.25,0,0,0,0,0
1.445,10.938,0,0,0,0,0
1.446,10.938,0,0,0,0,0
1.447,11.25,0,0,0,0,0
1.448,11.438,0,0,0,0,0
1.449,11.25,0,0,0,0,0
1.45,10.313,0,0,0,0,0
1.451,9.6875,0,0,0,0,0
1.452,10.75,0,0,0,0,0
1.453,11.875,0,0,0,0,0
1.454,12.625,0,0,0,0,0
1.455,13.438,0,0,0,0,0
1.456,12.188,0,0,0,0,0
1.457,10.938,0,0,0,0,0
1.458,12,0,0,0,0,0
1.459,13.125,0,0,0,0,0
1.46,14.188,0,0,0,0,0
1.461,15,0,0,0,0,0
1.462,14.063,0,0,0,0,0
1.463,13.125,0,0,0,0,0
1.464,13.438,0,0,0,0,0
1.465,12.5,0,0,0,0,0
1.466,13.125,0,0,0,0,0
1.467,12.5,0,0,0,0,0
1.468,11.75,0,0,0,0,0
1.469,11.563,0,0,0,0,0
1.47,12.063,0,0,0,0,0
1.471,11.875,0,0,0,0,0
1.472,11.75,0,0,0,1,0
1.473,12.188,0,0,0,0,0
1.474,12.625,0,0,0,0,0
1.475,13.438,0,0,0,0,0
1.476,13.313,0,0,0,0,0
1.477,12.813,0,0,0,0,0
1.478,12.5,0,0,0,0,0
1.479,12.188,0,0,0,0,0
1.48,12,0,0,0,0,0
1.481,12.188,0,0,0,0,0
1.482,12.5,0,0,0,0,0
1.483,12.188,0,0,0,0,0
1.484,11.688,0,0,0,0,0
1.485,12.188,0,0,0,0,0
1.486,12.188,0,0,0,0,0
1.487,11.875,0,0,0,0,0
1.488,11.688,0,0,0,0,0
1.489,11.875,0,0,0,0,0
1.49,11.063,0,0,0,0,0
1.491,11.563,0,0,0,0,0
1.492,11.375,0,0,0,0,0
1.493,11.25,0,0,0,0,0
1.494,10.938,0,0,0,0,0
1.495,10.938,0,0,0,0,0
1.496,10.5,0,0,0,0,0
1.497,10.625,0,0,0,0,0
1.498,10.188,0,0,0,0,0
1.499,10,0,0,0,0,0
1.5,10,0,0,0,0,0
1.501,10,0,0,0,0,0
1.502,9.5,0,0,0,0,0
1.503,9.6875,0,0,0,0,0
1.504,9.0625,0,0,0,0,0
1.505,8.75,0,0,0,0,0
1.506,8.125,0,0,0,0,0
1.507,8.4375,0,0,0,0,0
1.508,8.875,0,0,0,0,0
1.509,8.75,0,0,0,0,0
1.51,8.4375,0,0,0,0,0
1.511,7.8125,0,0,0,0,0
1.512,6.875,0,0,0,0,0
1.513,6.5625,0,0,0,0,0
1.514,6.6875,0,0,0,0,0
1.515,6.5625,0,0,0,0,0
1.516,6.6875,0,0,0,0,0
1.517,6.875,0,0,0,0,0
1.518,7.3125,0,0,0,0,0
1.519,7.1875,0,0,0,0,0
1.52,7.625,0,0,0,0,0
1.521,7.5,0,0,0,0,0
1.522,7.1875,0,0,0,0,0
1.523,7.5,0,0,0,0,0
1.524,7.625,0,0,0,0,0
1.525,7.8125,0,0,0,0,0
1.526,6.125,0,0,0,0,0
1.527,4.6875,0,0,0,0,0
1.528,3.75,0,0,0,0,0
1.529,4.0625,0,0,0,0,0
1.53,4.0625,0,0,0,0,0
1.531,4.0625,0,0,0,0,0
1.532,6.25,0,0,0,0,0
1.533,7.8125,0,0,0,0,0
1.534,7.5,0,0,0,0,0
1.535,7.1875,0,0,0,0,0
1.536,6.4375,0,0,0,0,0
1.537,6.25,0,0,0,0,0
1.538,5.8125,0,0,0,0,0
1.539,6.25,0,0,0,0,0
1.54,5.9375,0,0,0,0,0
1.541,5.625,0,0,0,0,0
1.542,5.625,0,0,0,0,0
1.543,5.3125,0,0,0,0,0
1.544,5.9375,0,0,0,0,0
1.545,5.9375,0,0,0,0,0
1.546,5.625,0,0,0,0,0
1.547,5.625,0,0,0,0,0
1.548,6.0625,0,0,0,0,0
1.549,6.875,0,0,0,0,0
1.55,6.6875,0,0,0,0,0
1.551,7.1875,0,0,0,0,0
1.552,6.5625,0,0,0,0,0
1.553,5.3125,0,0,0,0,0
1.554,4.875,0,0,0,0,0
1.555,3.75,0,0,0,0,0
1.556,4.1875,0,0,0,0,0
1.557,5,0,0,0,0,0
1.558,5,0,0,0,0,0
1.559,5.3125,0,0,0,0,0
1.56,5.4375,0,0,0,0,0
1.561,5.625,0,0,0,0,0
1.562,5,0,0,0,0,1
1.563,4.0625,0,0,0,0,0
1.564,3.5625,0,0,0,0,0
1.565,3.4375,0,0,0,0,0
1.566,3.125,0,0,0,0,0
1.567,2.5,0,0,0,0,0
1.568,1.75,0,0,0,0,0
1.569,1.25,0,0,0,0,0
1.57,3.125,0,0,0,0,0
1.571,4.0625,0,0,0,0,0
1.572,3.125,0,0,0,0,0
1.573,3.125,0,0,0,0,0
1.574,3.3125,0,0,0,0,0
1.575,3.4375,0,0,0,0,0
1.576,3.5625,0,0,0,0,0
1.577,3.4375,0,0,0,0,0
1.578,3.875,0,0,0,0,0
1.579,4.375,0,0,0,0,0
1.58,4.25,0,0,0,0,0
1.581,3.75,0,0,0,0,0
1.582,3.875,0,0,0,0,0
1.583,4.0625,0,0,0,0,0
1.584,4.6875,0,0,0,0,0
1.585,4.375,0,0,0,0,0
1.586,3.75,0,0,0,0,0
1.587,4.375,0,0,0,0,0
1.588,4.375,0,0,0,0,0
1.589,4.6875,0,0,0,0,0
1.59,4.8125,0,0,0,0,0
1.591,5,0,0,0,0,0
1.592,5.4375,0,0,0,0,0
1.593,5.625,0,0,0,0,0
1.594,4.875,0,0,0,0,0
1.595,4.0625,0,0,0,0,0
1.596,4.1875,0,0,0,0,0
1.597,4.6875,0,0,0,0,0
1.598,4.375,0,0,0,0,0
1.599,3.75,0,0,0,0,0
1.6,3.125,0,0,0,0,0
1.601,2.1875,0,0,0,0,0
1.602,2.8125,0,0,0,0,0
1.603,2.8125,0,0,0,0,0
1.604,2.625,0,0,0,0,0
1.605,3.125,0,0,0,0,0
1.606,4.8125,0,0,0,0,0
1.607,5,0,0,0,0,0
1.608,6.25,0,0,0,0,0
1.609,7.1875,0,0,0,0,0
1.61,6.75,0,0,0,0,0
1.611,5.9375,0,0,0,0,0
1.612,5.1875,0,0,0,0,0
1.613,4.6875,0,0,0,0,0
1.614,4.5625,0,0,0,0,0
1.615,4.375,0,0,0,0,0
1.616,5.125,0,0,0,0,0
1.617,4.6875,0,0,0,0,0
1.618,4.5,0,0,0,0,0
1.619,5,0,0,0,0,0
1.62,6.375,0,0,0,0,0
1.621,7.1875,0,0,0,0,0
1.622,7.8125,0,0,0,0,0
1.623,7.8125,0,0,0,0,0
1.624,7.5,0,0,0,0,0
1.625,7.1875,0,0,0,0,0
1.626,6.5625,0,0,0,0,0
1.627,6.25,0,0,0,0,0
1.628,6.5625,0,0,0,0,0
1.629,6.875,0,0,0,0,0
1.63,7.1875,0,0,0,0,0
1.631,7.5,0,0,0,0,0
1.632,7.375,0,0,0,0,0
1.633,6.875,0,0,0,0,0
1.634,6.4375,0,0,0,0,0
1.635,5.625,0,0,0,0,0
1.636,5.5,0,0,0,0,0
1.637,5.625,0,0,0,0,0
1.638,5.75,0,0,0,0,0
1.639,6.25,0,0,0,0,0
1.64,6.125,0,0,0,0,0
1.641,5.9375,0,0,0,0,0
1.642,6.4375,0,0,0,0,0
1.643,6.5625,0,0,0,0,0
1.644,6.6875,0,0,0,0,0
1.645,7.5,0,0,0,0,0
1.646,6.875,0,0,0,0,0
1.647,5.9375,0,0,0,0,0
1.648,6.0625,0,0,0,0,0
1.649,5.9375,0,0,0,0,0
1.65,5.625,0,0,0,0,0
1.651,5.3125,0,0,0,0,0
1.652,5.4375,0,0,0,0,0
1.653,5.625,0,0,0,0,0
1.654,5.4375,0,0,0,0,0
1.655,5.9375,0,0,0,0,0
1.656,5.3125,0,0,0,0,0
1.657,5.625,0,0,0,0,0
1.658,5,0,0,0,0,0
1.659,5,0,0,0,0,0
1.66,5.3125,0,0,0,0,0
1.661,5,0,0,0,0,0
1.662,5,0,0,0,0,0
1.663,5.3125,0,0,0,0,0
1.664,5.8125,0,0,0,0,0
1.665,5.625,0,0,0,0,0
1.666,5.5,0,0,0,0,0
1.667,5,0,0,0,0,0
1.668,5.625,0,0,0,0,0
1.669,5.625,0,0,0,0,0
1.67,5.1875,0,0,0,0,0
1.671,5,0,0,0,0,0
1.672,5.125,0,0,0,0,0
1.673,4.6875,0,0,0,0,0
1.674,4.875,0,0,0,0,0
1.675,5,0,0,0,0,0
1.676,5.3125,0,0,0,0,0
1.677,5.3125,0,0,0,0,0
1.678,5,0,0,0,0,0
1.679,4.6875,0,0,0,0,0
1.68,4.5,0,0,0,0,0
1.681,4.375,0,0,0,0,0
1.682,5.4375,0,0,0,0,0
1.683,6.25,0,0,0,0,0
1.684,6.875,0,0,0,0,0
1.685,6.25,0,0,0,0,0
1.686,5.625,0,0,0,0,0
1.687,5,0,0,0,0,0
1.688,5.1875,0,0,0,0,0
1.689,5.625,0,0,0,0,0
1.69,5.125,0,0,0,0,0
1.691,5,0,0,0,0,0
1.692,5.5,0,0,0,0,0
1.693,5.3125,0,0,0,0,0
1.694,4.5625,0,0,0,0,0
1.695,5,0,0,0,0,0
1.696,5.625,0,0,0,0,0
1.697,5.625,0,0,0,0,0
1.698,5,0,0,0,0,0
1.699,4.6875,0,0,0,0,0
1.7,5.1875,0,0,0,0,0
1.701,5.3125,0,0,0,0,0
1.702,5.125,0,0,0,0,0
1.703,5.9375,0,0,0,0,0
1.704,5.625,0,0,0,0,0
1.705,6.25,0,0,0,0,0
1.706,6.125,0,0,0,0,0
1.707,5.625,0,0,0,0,0
1.708,5.375,0,0,0,0,0
1.709,5.3125,0,0,0,0,0
1.71,4.875,0,0,0,0,0
1.711,5.9375,0,0,0,0,0
1.712,5.625,0,0,0,0,0
1.713,5.625,0,0,0,0,0
1.714,5.4375,0,0,0,0,0
1.715,5.3125,0,0,0,0,0
1.716,5.3125,0,0,0,0,0
1.717,5.3125,0,0,0,0,0
1.718,4.375,0,0,0,0,0
1.719,3.4375,0,0,0,0,0
1.72,3.75,0,0,0,0,0
1.721,4.0625,0,0,0,0,0
1.722,4.5,0,0,0,0,0
1.723,5,0,0,0,0,0
1.724,5.9375,0,0,0,0,0
1.725,5.9375,0,0,0,0,0
1.726,6.5625,0,0,0,0,0
1.727,6.875,0,0,0,0,0
1.728,7,0,0,0,0,0
1.729,7.1875,0,0,0,0,0
1.73,6.75,0,0,0,0,0
1.731,6.5625,0,0,0,0,0
1.732,7,0,0,0,0,0
1.733,6.5625,0,0,0,0,0
1.734,6.6875,0,0,0,0,0
1.735,6.875,0,0,0,0,0
1.736,7.6875,0,0,0,0,0
1.737,7.5,0,0,0,0,0
1.738,7.0625,0,0,0,0,0
1.739,7.1875,0,0,0,0,0
1.74,6.875,0,0,0,0,0
1.741,7.8125,0,0,0,0,0
1.742,7.5,0,0,0,0,0
1.743,7.5,0,0,0,0,0
1.744,7.8125,0,0,0,0,0
1.745,8.75,0,0,0,0,0
1.746,8.125,0,0,0,0,0
1.747,7.8125,0,0,0,0,0
1.748,8.125,0,0,0,0,0
1.749,8.4375,0,0,0,0,0
1.75,8.3125,0,0,0,0,0
1.751,7.8125,0,0,0,0,0
1.752,8.25,0,0,0,0,0
1.753,9.375,0,0,0,0,0
1.754,9.0625,0,0,0,0,0
1.755,9.375,0,0,0,0,0
1.756,9.6875,0,0,0,0,0
1.757,10,0,0,0,0,0
1.758,9.5625,0,0,0,0,0
1.759,9.375,0,0,0,0,0
1.76,10,0,0,0,0,0
1.761,9.6875,0,0,0,0,0
1.762,9.6875,0,0,0,0,0
1.763,9.6875,0,0,0,0,0
1.764,10.625,0,0,0,0,0
1.765,10.625,0,0,0,0,0
1.766,10.313,0,0,0,0,0
1.767,10.313,0,0,0,0,0
1.768,10.313,0,0,0,0,0
1.769,10,0,0,0,0,0
1.77,10.938,0,0,0,0,0
1.771,10.313,0,0,0,0,0
1.772,9.6875,0,0,0,0,0
1.773,9.375,0,0,0,0,0
1.774,9.375,0,0,0,0,0
1.775,9.375,0,0,0,0,0
1.776,9.8125,0,0,0,0,0
1.777,10.625,0,0,0,0,0
1.778,10.938,0,0,0,0,0
1.779,10.938,0,0,0,0,0
1.78,11.25,0,0,0,0,0
1.781,10.938,0,0,0,0,0
1.782,11.125,0,0,0,0,0
1.783,10.625,0,0,0,0,0
1.784,10,0,0,0,0,0
1.785,9.0625,0,0,0,0,0
1.786,8.625,0,0,0,0,0
1.787,8.75,0,0,0,0,0
1.788,10.75,0,0,0,0,0
1.789,13.125,0,0,0,0,0
1.79,12.5,0,0,0,0,0
1.791,12.813,0,0,0,0,0
1.792,12.188,0,0,0,0,0
1.793,11.25,0,0,0,0,0
1.794,10.75,0,0,0,0,0
1.795,11.25,0,0,0,0,0
1.796,11.063,0,0,0,0,0
1.797,11.25,0,0,0,0,0
1.798,10.625,0,0,0,0,0
1.799,9.6875,0,0,0,0,0
1.8,10,0,0,0,0,0
1.801,9.375,0,0,0,0,0
1.802,8.875,0,0,0,0,0
1.803,9.0625,0,0,0,0,0
1.804,9.0625,0,0,0,0,0
1.805,9.0625,0,0,0,0,0
1.806,8.3125,0,0,0,0,0
1.807,8.125,0,0,0,0,0
1.808,7.8125,0,0,0,0,0
1.809,8.125,0,0,0,0,0
1.81,8.125,0,0,0,0,0
1.811,8.4375,0,0,0,0,0
1.812,8.125,0,0,0,0,0
1.813,8.4375,0,0,0,0,0
1.814,7.6875,0,0,0,0,0
1.815,7.1875,0,0,0,0,0
1.816,7.9375,0,0,0,0,0
1.817,8.4375,0,0,0,0,0
1.818,8.625,0,0,0,0,0
1.819,8.4375,0,0,0,0,0
1.82,8.125,0,0,0,0,0
1.821,7.5,0,0,0,0,0
1.822,6.875,0,0,0,0,0
1.823,6.25,0,0,0,0,0
1.824,5.8125,0,0,0,0,0
1.825,4.6875,0,0,0,0,0
1.826,4.5,0,0,0,0,0
1.827,4.375,0,0,0,0,0
1.828,3.625,0,0,0,0,0
1.829,3.75,0,0,0,0,0
1.83,3.75,0,0,0,0,0
1.831,3.125,0,0,0,0,0
1.832,2.8125,0,0,0,0,0
1.833,3.125,0,0,0,0,0
1.834,3.5625,0,0,0,0,0
1.835,4.375,0,0,0,0,0
1.836,3.9375,0,0,0,0,0
1.837,4.0625,0,0,0,0,0
1.838,4.0625,0,0,0,0,0
1.839,3.4375,0,0,0,0,0
1.84,3.625,0,0,0,0,0
1.841,3.4375,0,0,0,0,0
1.842,3.9375,0,0,0,0,0
1.843,3.75,0,0,0,0,0
1.844,3.125,0,0,0,0,0
1.845,2.5,0,0,0,0,0
1.846,2.1875,0,0,0,0,0
1.847,1.5625,0,0,0,0,0
1.848,1.6875,0,0,0,0,0
1.849,2.8125,0,0,0,0,0
1.85,2.625,0,0,0,0,0
1.851,3.125,0,0,0,0,0
1.852,3,0,0,0,0,0
1.853,3.125,0,0,0,0,0
1.854,4.5,0,0,0,0,0
1.855,5.9375,0,0,0,0,0
1.856,6.25,0,0,0,0,0
1.857,6.5625,0,0,0,0,0
1.858,5.8125,0,0,0,0,0
1.859,5.3125,0,0,0,0,0
1.86,5,0,0,0,0,0
1.861,4.375,0,0,0,0,0
1.862,4.6875,0,0,0,0,0
1.863,4.375,0,0,0,0,0
1.864,3.75,0,0,0,0,0
1.865,2.8125,0,0,0,0,0
1.866,2.375,0,0,0,0,0
1.867,1.875,0,0,0,0,0
1.868,3.125,0,0,0,0,0
1.869,3.4375,0,0,0,0,0
1.87,3.5625,0,0,0,0,0
1.871,3.4375,0,0,0,0,0
1.872,3,0,0,0,0,0
1.873,2.8125,0,0,0,0,0
1.874,3.875,0,0,0,0,0
1.875,4.6875,0,0,0,0,0
1.876,3.9375,0,0,0,0,0
1.877,3.4375,0,0,0,0,0
1.878,3.125,0,0,0,0,0
1.879,2.1875,0,0,0,0,0
1.88,3.4375,0,0,0,0,0
1.881,4.6875,0,0,0,0,0
1.882,4.375,0,0,0,0,0
1.883,5,0,0,0,0,0
1.884,5.1875,0,0,0,0,0
1.885,5,0,0,0,0,0
1.886,5.3125,0,0,0,0,0
1.887,4.6875,0,0,0,0,0
1.888,4.6875,0,0,0,0,0
1.889,4.6875,0,0,0,0,0
1.89,3.3125,0,0,0,0,0
1.891,2.8125,0,0,0,0,0
1.892,2.1875,0,0,0,0,0
1.893,2.5,1,0,0,0,0
1.894,2.3125,0,0,0,0,0
1.895,2.1875,0,0,0,0,0
1.896,1.875,0,0,0,0,0
1.897,1.5625,0,0,0,0,0
1.898,1.875,0,0,0,0,0
1.899,1.25,0,0,0,0,0
1.9,2.8125,0,0,0,0,0
1.901,2.8125,0,0,0,0,0
1.902,4.0625,0,0,0,0,0
1.903,4.375,0,0,0,0,0
1.904,4.1875,0,0,0,0,0
1.905,5,0,0,0,0,0
1.906,4.25,0,0,0,0,0
1.907,4.6875,0,0,0,0,0
1.908,4.8125,0,0,0,0,0
1.909,5,0,0,0,0,0
1.91,4.25,0,0,0,0,0
1.911,4.0625,0,0,0,0,0
1.912,3.625,0,0,0,0,0
1.913,3.75,0,0,0,0,0
1.914,4.375,0,0,0,0,0
1.915,5,0,0,0,0,0
1.916,5.3125,0,0,0,0,0
1.917,5.625,0,0,0,0,0
1.918,5.8125,0,0,0,0,0
1.919,5.3125,0,0,0,0,0
1.92,5.625,0,0,0,0,0
1.921,5.3125,0,0,0,0,0
1.922,6.25,0,0,0,0,0
1.923,6.875,0,0,0,0,0
1.924,8.25,0,0,0,0,0
1.925,9.375,0,0,0,0,0
1.926,9.6875,0,0,0,0,0
1.927,10.625,0,0,0,0,0
1.928,12.188,0,0,0,0,0
1.929,14.063,0,0,0,0,0
1.93,15.125,0,0,0,0,0
1.931,16.563,0,0,0,0,0
1.932,18.25,0,0,0,0,0
1.933,20.625,0,0,0,0,0
1.934,23.563,0,0,0,0,0
1.935,26.875,0,0,0,0,0
1.936,29.375,0,0,0,0,0
1.937,31.563,0,0,0,0,0
1.938,34.25,0,0,0,0,0
1.939,36.25,0,0,0,0,0
1.94,37.375,0,0,0,0,0
1.941,38.438,0,0,0,0,0
1.942,41.063,0,0,0,0,0
1.943,43.75,0,0,0,0,0
1.944,46.375,0,0,0,0,0
1.945,48.125,0,0,0,0,0
1.946,48.938,0,0,0,0,0
1.947,49.688,0,0,0,0,0
1.948,51.375,0,0,0,0,0
1.949,52.188,0,0,0,0,0
1.95,51.688,0,0,0,0,0
1.951,50.938,0,0,0,0,0
1.952,48.438,0,0,0,0,0
1.953,45.313,0,0,0,0,0
1.954,41.875,0,0,0,0,0
1.955,39.063,0,1,0,0,0
1.956,35.75,0,0,0,0,0
1.957,30.938,0,0,0,0,0
1.958,24.063,0,0,0,0,0
1.959,18.125,0,0,0,0,0
1.96,13.563,0,0,0,0,0
1.961,9.6875,0,0,0,0,0
1.962,5,0,0,0,0,0
1.963,-0.3125,0,0,0,0,0
1.964,-4.25,0,0,0,0,0
1.965,-6.875,0,0,0,0,0
1.966,-10.625,0,0,0,0,0
1.967,-12.813,0,0,0,0,0
1.968,-14.688,0,0,0,0,0
1.969,-16.25,0,0,0,0,0
1.97,-18.438,0,0,0,0,0
1.971,-20.938,0,0,0,0,0
1.972,-23.875,0,0,0,0,0
1.973,-25.938,0,0,0,0,0
1.974,-25.938,0,0,0,0,0
1.975,-26.563,0,0,0,0,0
1.976,-27.188,0,0,0,0,0
1.977,-27.5,0,0,0,0,0
1.978,-27.188,0,0,0,0,0
1.979,-26.25,0,0,0,0,0
1.98,-26.563,0,0,0,0,0
1.981,-25.625,0,0,0,0,0
1.982,-23.625,0,0,0,0,0
1.983,-21.563,0,0,0,0,0
1.984,-20.313,0,0,0,0,0
1.985,-19.063,0,0,0,0,0
1.986,-18,0,0,0,0,0
1.987,-17.5,0,0,0,0,0
1.988,-17.188,0,0,0,0,0
1.989,-16.875,0,0,0,0,0
1.99,-16.438,0,0,0,0,0
1.991,-15.938,0,0,0,0,0
1.992,-15.438,0,0,0,0,0
1.993,-15,0,0,0,0,0
1.994,-15.438,0,0,0,0,0
1.995,-15.625,0,0,0,0,0
1.996,-15.313,0,0,0,0,0
1.997,-15.625,0,0,0,0,0
1.998,-16.563,0,0,0,0,0
1.999,-16.563,0,0,0,0,0
2,-15.313,0,0,0,0,0
2.001,-14.063,0,0,0,0,0
2.002,-12.5,0,0,0,0,0
2.003,-10.938,0,0,0,0,0
2.004,-10.625,0,0,0,0,0
2.005,-10,0,0,0,0,0
2.006,-10.438,0,0,0,0,0
2.007,-10.313,0,0,0,0,0
2.008,-11.25,0,0,0,0,0
2.009,-11.875,0,0,0,0,0
2.01,-12.063,0,0,0,0,0
2.011,-12.188,0,0,0,0,0
2.012,-11.438,0,0,0,0,0
2.013,-10,0,0,0,0,0
2.014,-9.375,0,0,0,0,0
2.015,-9.375,0,0,0,0,0
2.016,-8.75,0,0,0,0,0
2.017,-9.0625,0,0,0,0,0
2.018,-9.875,0,0,0,0,0
2.019,-9.6875,0,0,0,0,0
2.02,-10.75,0,0,0,0,0
2.021,-10.938,0,0,0,0,0
2.022,-11.125,0,0,0,0,0
2.023,-11.25,0,0,0,0,0
2.024,-10.938,0,0,0,0,0
2.025,-10.313,0,0,0,0,0
2.026,-10.125,0,0,0,0,0
2.027,-10.625,0,0,0,0,0
2.028,-10.5,0,0,0,0,0
2.029,-10.625,0,0,0,0,0
2.03,-11.688,0,0,0,0,0
2.031,-12.188,0,0,0,0,0
2.032,-12.188,0,0,0,0,0
2.033,-12.5,0,0,0,0,0
2.034,-12.938,0,0,0,0,0
2.035,-13.438,0,0,0,0,0
2.036,-13.125,0,0,0,0,0
2.037,-12.813,0,0,0,0,0
2.038,-12.5,0,0,0,0,0
2.039,-12.188,0,0,0,0,0
2.04,-12.313,0,0,0,0,0
2.041,-12.188,0,0,0,0,0
2.042,-12.5,0,0,0,0,0
2.043,-12.188,0,0,0,0,0
2.044,-11.563,0,0,0,0,0
2.045,-10.313,0,0,0,0,0
2.046,-9.5625,0,0,0,0,0
2.047,-8.4375,0,0,0,0,0
2.048,-7.8125,0,0,0,0,0
2.049,-7.8125,0,0,0,0,0
2.05,-6.4375,0,0,0,0,0
2.051,-5.3125,0,0,0,0,0
2.052,-4.8125,0,0,0,0,0
2.053,-4.6875,0,0,0,0,0
2.054,-4.0625,0,0,0,0,0
2.055,-3.75,0,0,0,0,0
2.056,-3.5625,0,0,0,0,0
2.057,-3.75,0,0,0,0,0
2.058,-2.8125,0,0,0,0,0
2.059,-0.9375,0,0,0,0,0
2.06,-0.1875,0,0,0,0,0
2.061,0.3125,0,0,0,0,0
2.062,0,0,0,0,0,0
2.063,0,0,0,0,0,0
2.064,0.9375,0,0,0,0,0
2.065,1.875,0,0,0,0,0
2.066,1.75,0,0,0,0,0
2.067,1.5625,0,0,0,0,0
2.068,2.1875,0,0,0,0,0
2.069,2.1875,0,0,0,0,0
2.07,2.8125,0,0,0,0,0
2.071,3.125,0,0,0,0,0
2.072,3.875,0,0,0,0,0
2.073,4.0625,0,0,0,0,0
2.074,4.8125,0,0,0,0,0
2.075,5.9375,0,0,0,0,0
2.076,5.1875,0,0,0,0,0
2.077,5.3125,0,0,0,0,0
2.078,5.1875,0,0,0,0,0
2.079,5.3125,0,0,0,0,0
2.08,5,0,0,0,0,0
2.081,5,0,0,0,0,0
2.082,4.6875,0,0,0,0,0
2.083,4.375,0,0,0,0,0
2.084,5,0,0,0,0,0
2.085,5,0,0,0,0,0
2.086,4.375,0,0,0,0,0
2.087,4.6875,0,0,0,0,0
2.088,5.625,0,0,0,0,0
2.089,5.3125,0,0,1,0,0
2.09,5,0,0,0,0,0
2.091,5,0,0,0,0,0
2.092,5.3125,0,0,0,0,0
2.093,5,0,0,0,0,0
2.094,4.8125,0,0,0,0,0
2.095,5,0,0,0,0,0
2.096,6.5625,0,0,0,0,0
2.097,7.5,0,0,0,0,0
2.098,7.625,0,0,0,0,0
2.099,8.4375,0,0,0,0,0
2.1,7.0625,0,0,0,0,0
2.101,6.875,0,0,0,0,0
2.102,6.25,0,0,0,0,0
2.103,6.5625,0,0,0,0,0
2.104,6.75,0,0,0,0,0
2.105,6.5625,0,0,0,0,0
2.106,5.8125,0,0,0,0,0
2.107,5.3125,0,0,0,0,0
2.108,5.1875,0,0,0,0,0
2.109,5.625,0,0,0,0,0
2.11,5.9375,0,0,0,0,0
2.111,6.5625,0,0,0,0,0
2.112,6.125,0,0,0,0,0
2.113,5.3125,0,0,0,0,0
2.114,5.1875,0,0,0,0,0
2.115,5,0,0,0,0,0
2.116,6.0625,0,0,0,0,0
2.117,6.5625,0,0,0,0,0
2.118,6.5625,0,0,0,0,0
2.119,6.875,0,0,0,0,0
2.12,7.1875,0,0,0,0,0
2.121,7.1875,0,0,0,0,0
2.122,7.1875,0,0,0,0,0
2.123,7.1875,0,0,0,0,0
2.124,6.5625,0,0,0,0,0
2.125,5.625,0,0,0,0,0
2.126,5,0,0,0,0,0
2.127,4.0625,0,0,0,0,0
2.128,4.5,0,0,0,0,0
2.129,5.625,0,0,0,0,0
2.13,6.0625,0,0,0,0,0
2.131,6.5625,0,0,0,0,0
2.132,6.5625,0,0,0,0,0
2.133,6.5625,0,0,0,0,0
2.134,6.4375,0,0,0,0,0
2.135,5.625,0,0,0,0,0
2.136,6.125,0,0,0,0,0
2.137,5.9375,0,0,0,0,0
2.138,6.125,0,0,0,0,0
2.139,6.25,0,0,0,0,0
2.14,6.125,0,0,0,0,0
2.141,6.5625,0,0,0,0,0
2.142,6.75,0,0,0,0,0
2.143,6.25,0,0,0,0,0
2.144,5.75,0,0,0,0,0
2.145,5.625,0,0,0,0,0
2.146,6.5625,0,0,0,0,0
2.147,7.1875,0,0,0,0,0
2.148,7.5,0,0,0,0,0
2.149,8.125,0,0,0,0,0
2.15,8.4375,0,0,0,0,0
2.151,7.8125,0,0,0,0,0
2.152,7.375,0,0,0,0,0
2.153,6.875,0,0,0,0,0
2.154,6.875,0,0,0,0,0
2.155,6.875,0,0,0,0,0
2.156,7,0,0,0,0,0
2.157,7.5,0,0,0,0,0
2.158,7.0625,0,0,0,0,0
2.159,6.875,0,0,0,0,0
2.16,6.25,0,0,0,0,0
2.161,6.5625,0,0,0,0,0
2.162,7.0625,0,0,0,0,0
2.163,7.1875,0,0,0,0,0
2.164,7,0,0,0,0,0
2.165,7.1875,0,0,0,0,0
2.166,6.375,0,0,0,0,0
2.167,6.5625,0,0,0,0,0
2.168,6.4375,0,0,0,0,0
2.169,6.5625,0,0,0,0,0
2.17,6.75,0,0,0,0,0
2.171,6.5625,0,0,0,0,0
2.172,6.125,0,0,0,0,0
2.173,6.5625,0,0,0,0,0
2.174,7.5,0,0,0,0,0
2.175,8.125,0,0,0,0,0
2.176,7.5,0,0,0,0,0
2.177,7.1875,0,0,0,0,0
2.178,7.8125,0,0,0,0,0
2.179,7.5,0,0,0,0,0
2.18,7.5,0,0,0,0,0
2.181,7.5,0,0,0,0,0
2.182,8.25,0,0,0,0,0
2.183,9.0625,0,0,0,0,0
2.184,9.0625,0,0,0,0,0
2.185,8.75,0,0,0,0,0
2.186,7.8125,0,0,0,0,0
2.187,6.5625,0,0,0,0,0
2.188,7.3125,0,0,0,0,0
2.189,7.5,0,0,0,0,0
2.19,8.25,0,0,0,0,0
2.191,8.75,0,0,0,0,0
2.192,8.9375,0,0,0,0,0
2.193,8.4375,0,0,0,0,0
2.194,8.625,0,0,0,0,0
2.195,8.125,0,0,0,0,0
2.196,8.5625,0,0,0,0,0
2.197,9.375,0,0,0,0,0
2.198,8.9375,0,0,0,0,0
2.199,9.0625,0,0,0,0,0
2.2,8.9375,0,0,0,0,0
2.201,8.4375,0,0,0,0,0
2.202,9.0625,0,0,0,0,0
2.203,9.0625,0,0,0,0,0
2.204,9.6875,0,0,0,0,0
2.205,9.6875,0,0,0,0,0
2.206,9.8125,0,0,0,0,0
2.207,9.6875,0,0,0,0,0
2.208,8.9375,0,0,0,0,0
2.209,7.8125,0,0,0,0,0
2.21,8,0,0,0,0,0
2.211,7.8125,0,0,0,0,0
2.212,8,0,0,0,0,0
2.213,8.125,0,0,0,0,0
2.214,8.875,0,0,0,0,0
2.215,9.6875,0,0,0,0,0
2.216,9.5,0,0,0,0,0
2.217,9.6875,0,0,0,0,0
2.218,10.125,0,0,0,0,0
2.219,10,0,0,0,0,0
2.22,9.875,0,0,0,0,0
2.221,9.6875,0,0,0,0,0
2.222,9.8125,0,0,0,0,0
2.223,10.313,0,0,0,0,0
2.224,10.625,0,0,0,0,0
2.225,10.625,0,0,0,0,0
2.226,10.813,0,0,0,0,0
2.227,10.938,0,0,0,0,0
2.228,10,0,0,0,0,0
2.229,8.75,0,0,0,0,0
2.23,8.625,0,0,0,0,0
2.231,8.125,0,0,0,0,0
2.232,8.3125,0,0,0,0,0
2.233,8.4375,0,0,0,0,0
2.234,10.125,0,0,0,0,0
2.235,10.938,0,0,0,0,0
2.236,10.75,0,0,0,0,0
2.237,11.563,0,0,0,0,0
2.238,12.5,0,0,0,0,0
2.239,13.75,0,0,0,0,0
2.24,14.063,0,0,0,0,0
2.241,14.688,0,0,0,0,0
2.242,14.375,0,0,0,0,0
2.243,14.063,0,0,0,0,0
2.244,14.063,0,0,0,0,0
2.245,14.063,0,0,0,0,0
2.246,14.063,0,0,0,0,0
2.247,13.75,0,0,0,0,0
2.248,13.75,0,0,0,0,0
2.249,13.75,0,0,0,0,0
2.25,13.75,0,0,0,0,0
2.251,13.75,0,0,0,0,0
2.252,12.5,0,0,0,0,0
2.253,11.25,0,0,0,0,0
2.254,11.375,0,0,0,0,0
2.255,12.188,0,0,0,0,0
2.256,12.5,0,0,0,0,0
2.257,12.188,0,0,0,0,0
2.258,12.625,0,0,0,0,0
2.259,14.063,0,0,0,0,0
2.26,13.563,0,0,0,0,0
2.261,14.375,0,0,0,0,0
2.262,13.875,0,0,0,0,0
2.263,13.438,0,0,0,0,0
2.264,13,0,0,0,0,0
2.265,13.125,0,0,0,0,0
2.266,12.813,0,0,0,0,0
2.267,12.5,0,0,0,0,0
2.268,13.875,0,0,0,0,0
2.269,14.375,0,0,0,0,0
2.27,15,0,0,0,0,0
2.271,15.625,0,0,0,0,0
2.272,14.875,0,0,0,0,0
2.273,14.375,0,0,0,1,0
2.274,13.75,0,0,0,0,0
2.275,12.813,0,0,0,0,0
2.276,13.25,0,0,0,0,0
2.277,14.063,0,0,0,0,0
2.278,14.063,0,0,0,0,0
2.279,13.75,0,0,0,0,0
2.28,13.438,0,0,0,0,0
2.281,13.125,0,0,0,0,0
2.282,12.5,0,0,0,0,0
2.283,11.563,0,0,0,0,0
2.284,11.875,0,0,0,0,0
2.285,11.25,0,0,0,0,0
2.286,12.188,0,0,0,0,0
2.287,12.5,0,0,0,0,0
2.288,12.313,0,0,0,0,0
2.289,12.188,0,0,0,0,0
2.29,12.313,0,0,0,0,0
2.291,12.5,0,0,0,0,0
2.292,13,0,0,0,0,0
2.293,12.5,0,0,0,0,0
2.294,12.063,0,0,0,0,0
2.295,11.25,0,0,0,0,0
2.296,10.625,0,0,0,0,0
2.297,9.6875,0,0,0,0,0
2.298,10.125,0,0,0,0,0
2.299,10,0,0,0,0,0
2.3,9.6875,0,0,0,0,0
2.301,9.375,0,0,0,0,0
2.302,9.875,0,0,0,0,0
2.303,10,0,0,0,0,0
2.304,9.8125,0,0,0,0,0
2.305,10,0,0,0,0,0
2.306,10.125,0,0,0,0,0
2.307,10,0,0,0,0,0
2.308,10,0,0,0,0,0
2.309,10,0,0,0,0,0
2.31,9.5625,0,0,0,0,0
2.311,9.375,0,0,0,0,0
2.312,9.0625,0,0,0,0,0
2.313,8.75,0,0,0,0,0
2.314,8.25,0,0,0,0,0
2.315,8.75,0,0,0,0,0
2.316,8,0,0,0,0,0
2.317,7.1875,0,0,0,0,0
2.318,7.5,0,0,0,0,0
2.319,7.5,0,0,0,0,0
2.32,8.5625,0,0,0,0,0
2.321,8.75,0,0,0,0,0
2.322,8,0,0,0,0,0
2.323,7.1875,0,0,0,0,0
2.324,7.0625,0,0,0,0,0
2.325,6.5625,0,0,0,0,0
2.326,5.8125,0,0,0,0,0
2.327,5,0,0,0,0,0
2.328,4.25,0,0,0,0,0
2.329,3.4375,0,0,0,0,0
2.33,3.25,0,0,0,0,0
2.331,2.8125,0,0,0,0,0
2.332,2.8125,0,0,0,0,0
2.333,2.5,0,0,0,0,0
2.334,3.25,0,0,0,0,0
2.335,3.125,0,0,0,0,0
2.336,4.1875,0,0,0,0,0
2.337,5.9375,0,0,0,0,0
2.338,6.25,0,0,0,0,0
2.339,6.875,0,0,0,0,0
2.34,7.8125,0,0,0,0,0
2.341,8.75,0,0,0,0,0
2.342,7.5,0,0,0,0,0
2.343,6.25,0,0,0,0,0
2.344,6.25,0,0,0,0,0
2.345,5.3125,0,0,0,0,0
2.346,5,0,0,0,0,0
2.347,5,0,0,0,0,0
2.348,4.8125,0,0,0,0,0
2.349,5.3125,0,0,0,0,0
2.35,5.625,0,0,0,0,0
2.351,6.25,0,0,0,0,0
2.352,6.25,0,0,0,0,0
2.353,5.625,0,0,0,0,0
2.354,5,0,0,0,0,0
2.355,4.375,0,0,0,0,0
2.356,4.5,0,0,0,0,0
2.357,4.6875,0,0,0,0,0
2.358,4.8125,0,0,0,0,0
2.359,4.6875,0,0,0,0,0
2.36,4.375,0,0,0,0,0
2.361,4.375,0,0,0,0,0
2.362,4.1875,0,0,0,0,0
2.363,4.375,0,0,0,0,0
2.364,4.0625,0,0,0,0,0
2.365,4.375,0,0,0,0,0
2.366,3.9375,0,0,0,0,0
2.367,3.125,0,0,0,0,0
2.368,4.1875,0,0,0,0,0
2.369,5,0,0,0,0,0
2.37,5,0,0,0,0,0
2.371,4.6875,0,0,0,0,0
2.372,4.375,0,0,0,0,0
2.373,4.0625,0,0,0,0,0
2.374,4.375,0,0,0,0,0
2.375,5,0,0,0,0,0
2.376,4.375,0,0,0,0,0
2.377,4.0625,0,0,0,0,0
2.378,3.125,0,0,0,0,0
2.379,2.5,0,0,0,0,0
2.38,1.875,0,0,0,0,0
2.381,1.25,0,0,0,0,0
2.382,1.75,0,0,0,0,0
2.383,1.5625,0,0,0,0,1
2.384,1.875,0,0,0,0,0
2.385,1.875,0,0,0,0,0
2.386,2.8125,0,0,0,0,0
2.387,4.0625,0,0,0,0,0
2.388,3.9375,0,0,0,0,0
2.389,3.125,0,0,0,0,0
2.39,2.625,0,0,0,0,0
2.391,2.8125,0,0,0,0,0
2.392,3.125,0,0,0,0,0
2.393,3.75,0,0,0,0,0
2.394,3.125,0,0,0,0,0
2.395,2.1875,0,0,0,0,0
2.396,2,0,0,0,0,0
2.397,2.8125,0,0,0,0,0
2.398,3.125,0,0,0,0,0
2.399,2.8125,0,0,0,0,0
2.4,2.375,0,0,0,0,0
2.401,3.125,0,0,0,0,0
2.402,2.8125,0,0,0,0,0
2.403,3.125,0,0,0,0,0
2.404,3,0,0,0,0,0
2.405,2.5,0,0,0,0,0
2.406,2.625,0,0,0,0,0
2.407,3.4375,0,0,0,0,0
2.408,3.625,0,0,0,0,0
2.409,3.4375,0,0,0,0,0
2.41,3,0,0,0,0,0
2.411,3.125,0,0,0,0,0
2.412,3.25,0,0,0,0,0
2.413,3.75,0,0,0,0,0
2.414,4.5,0,0,0,0,0
2.415,5.3125,0,0,0,0,0
2.416,4.5625,0,0,0,0,0
2.417,4.6875,0,0,0,0,0
2.418,3.625,0,0,0,0,0
2.419,2.5,0,0,0,0,0
2.42,2.9375,0,0,0,0,0
2.421,3.4375,0,0,0,0,0
2.422,3,0,0,0,0,0
2.423,2.5,0,0,0,0,0
2.424,2.8125,0,0,0,0,0
2.425,2.8125,0,0,0,0,0
2.426,2.5,0,0,0,0,0
2.427,2.1875,0,0,0,0,0
2.428,2,0,0,0,0,0
2.429,1.875,0,0,0,0,0
2.43,1.6875,0,0,0,0,0
2.431,2.1875,0,0,0,0,0
2.432,2.9375,0,0,0,0,0
2.433,3.125,0,0,0,0,0
2.434,3,0,0,0,0,0
2.435,2.8125,0,0,0,0,0
2.436,3.5625,0,0,0,0,0
2.437,5,0,0,0,0,0
2.438,5.1875,0,0,0,0,0
2.439,4.6875,0,0,0,0,0
2.44,4.375,0,0,0,0,0
2.441,3.75,0,0,0,0,0
2.442,3.4375,0,0,0,0,0
2.443,3.4375,0,0,0,0,0
2.444,3,0,0,0,0,0
2.445,2.8125,0,0,0,0,0
2.446,2.8125,0,0,0,0,0
2.447,2.8125,0,0,0,0,0
2.448,2.8125,0,0,0,0,0
2.449,2.5,0,0,0,0,0
2.45,2.9375,0,0,0,0,0
2.451,2.5,0,0,0,0,0
2.452,3.125,0,0,0,0,0
2.453,3.125,0,0,0,0,0
2.454,3.3125,0,0,0,0,0
2.455,3.125,0,0,0,0,0
2.456,2.375,0,0,0,0,0
2.457,2.1875,0,0,0,0,0
2.458,2.8125,0,0,0,0,0
2.459,3.75,0,0,0,0,0
2.46,4.6875,0,0,0,0,0
2.461,5.625,0,0,0,0,0
2.462,5.75,0,0,0,0,0
2.463,6.875,0,0,0,0,0
2.464,6.5625,0,0,0,0,0
2.465,5.9375,0,0,0,0,0
2.466,5,0,0,0,0,0
2.467,4.0625,0,0,0,0,0
2.468,3.3125,0,0,0,0,0
2.469,3.4375,0,0,0,0,0
2.47,3.3125,0,0,0,0,0
2.471,3.4375,0,0,0,0,0
2.472,3.3125,0,0,0,0,0
2.473,3.125,0,0,0,0,0
2.474,3.75,0,0,0,0,0
2.475,3.75,0,0,0,0,0
2.476,3.4375,0,0,0,0,0
2.477,3.4375,0,0,0,0,0
2.478,3.4375,0,0,0,0,0
2.479,4.0625,0,0,0,0,0
2.48,3.5625,0,0,0,0,0
2.481,3.75,0,0,0,0,0
2.482,3.3125,0,0,0,0,0
2.483,3.4375,0,0,0,0,0
2.484,4.5,0,0,0,0,0
2.485,4.375,0,0,0,0,0
2.486,3.625,0,0,0,0,0
2.487,3.75,0,0,0,0,0
2.488,3.3125,0,0,0,0,0
2.489,2.5,0,0,0,0,0
2.49,2.5,0,0,0,0,0
2.491,1.875,0,0,0,0,0
2.492,1.875,0,0,0,0,0
2.493,1.5625,0,0,0,0,0
2.494,2.1875,0,0,0,0,0
2.495,3.75,0,0,0,0,0
2.496,3.125,0,0,0,0,0
2.497,1.875,0,0,0,0,0
2.498,1.5625,0,0,0,0,0
2.499,-0.3125,0,0,0,0,0
2.5,-0.3125,0,0,0,0,0
2.501,-0.3125,0,0,0,0,0
2.502,-0.5,0,0,0,0,0
2.503,0,0,0,0,0,0
2.504,0.4375,0,0,0,0,0
2.505,0.9375,0,0,0,0,0
2.506,2,0,0,0,0,0
2.507,1.875,0,0,0,0,0
2.508,1.75,0,0,0,0,0
2.509,1.5625,0,0,0,0,0
2.51,1.5625,0,0,0,0,0
2.511,2.8125,0,0,0,0,0
2.512,3.125,0,0,0,0,0
2.513,3.125,0,0,0,0,0
2.514,3.5625,0,0,0,0,0
2.515,3.125,0,0,0,0,0
2.516,3.3125,0,0,0,0,0
2.517,3.75,0,0,0,0,0
2.518,4.1875,0,0,0,0,0
2.519,4.6875,0,0,0,0,0
2.52,5.4375,0,0,0,0,0
2.521,6.5625,0,0,0,0,0
2.522,6.5625,0,0,0,0,0
2.523,6.25,0,0,0,0,0
2.524,5.625,0,0,0,0,0
2.525,5.9375,0,0,0,0,0
2.526,5.8125,0,0,0,0,0
2.527,5,0,0,0,0,0
2.528,4.375,0,0,0,0,0
2.529,4.375,0,0,0,0,0
2.53,5,0,0,0,0,0
2.531,5.625,0,0,0,0,0
2.532,5.9375,0,0,0,0,0
2.533,5.9375,0,0,0,0,0
2.534,5.625,0,0,0,0,0
2.535,5.625,0,0,0,0,0
2.536,5.1875,0,0,0,0,0
2.537,4.6875,0,0,0,0,0
2.538,5.125,0,0,0,0,0
2.539,5.625,0,0,0,0,0
2.54,5.625,0,0,0,0,0
2.541,5.625,0,0,0,0,0
2.542,5.75,0,0,0,0,0
2.543,5.9375,0,0,0,0,0
2.544,5.8125,0,0,0,0,0
2.545,5.625,0,0,0,0,0
2.546,4.6875,0,0,0,0,0
2.547,3.75,0,0,0,0,0
2.548,4.1875,0,0,0,0,0
2.549,4.6875,0,0,0,0,0
2.55,5.625,0,0,0,0,0
2.551,6.5625,0,0,0,0,0
2.552,7.1875,0,0,0,0,0
2.553,7.8125,0,0,0,0,0
2.554,7.6875,0,0,0,0,0
2.555,7.5,0,0,0,0,0
2.556,7.5,0,0,0,0,0
2.557,7.5,0,0,0,0,0
2.558,7.5,0,0,0,0,0
2.559,7.5,0,0,0,0,0
2.56,8.75,0,0,0,0,0
2.561,10,0,0,0,0,0
2.562,10,0,0,0,0,0
2.563,10,0,0,0,0,0
2.564,8.75,0,0,0,0,0
2.565,7.5,0,0,0,0,0
2.566,7.375,0,0,0,0,0
2.567,7.1875,0,0,0,0,0
2.568,7.1875,0,0,0,0,0
2.569,7.1875,0,0,0,0,0
2.57,6.875,0,0,0,0,0
2.571,6.5625,0,0,0,0,0
2.572,6.4375,0,0,0,0,0
2.573,6.25,0,0,0,0,0
2.574,6.875,0,0,0,0,0
2.575,7.5,0,0,0,0,0
2.576,7.8125,0,0,0,0,0
2.577,8.125,0,0,0,0,0
2.578,8,0,0,0,0,0
2.579,7.8125,0,0,0,0,0
2.58,7.375,0,0,0,0,0
2.581,6.875,0,0,0,0,0
2.582,7.5,0,0,0,0,0
2.583,8.125,0,0,0,0,0
2.584,8.75,0,0,0,0,0
2.585,9.375,0,0,0,0,0
2.586,9.0625,0,0,0,0,0
2.587,8.75,0,0,0,0,0
2.588,8.125,0,0,0,0,0
2.589,7.5,0,0,0,0,0
2.59,7.375,0,0,0,0,0
2.591,7.1875,0,0,0,0,0
2.592,7.3125,0,0,0,0,0
2.593,7.5,0,0,0,0,0
2.594,7.0625,0,0,0,0,0
2.595,6.5625,0,0,0,0,0
2.596,5.3125,0,0,0,0,0
2.597,4.0625,0,0,0,0,0
2.598,2.6875,0,0,0,0,0
2.599,1.25,0,0,0,0,0
2.6,1.5625,0,0,0,0,0
2.601,1.875,0,0,0,0,0
2.602,3.4375,0,0,0,0,0
2.603,5,0,0,0,0,0
2.604,5.9375,0,0,0,0,0
2.605,6.875,0,0,0,0,0
2.606,6.875,0,0,0,0,0
2.607,6.875,0,0,0,0,0
2.608,5.8125,0,0,0,0,0
2.609,4.6875,0,0,0,0,0
2.61,4.0625,0,0,0,0,0
2.611,3.4375,0,0,0,0,0
2.612,3.3125,0,0,0,0,0
2.613,3.125,0,0,0,0,0
2.614,3.25,0,0,0,0,0
2.615,3.4375,0,0,0,0,0
2.616,3,0,0,0,0,0
2.617,2.5,0,0,0,0,0
2.618,2.5,0,0,0,0,0
2.619,2.5,0,0,0,0,0
2.62,2.5,0,0,0,0,0
2.621,2.5,0,0,0,0,0
2.622,1.875,0,0,0,0,0
2.623,1.25,0,0,0,0,0
2.624,1.125,0,0,0,0,0
2.625,0.9375,0,0,0,0,0
2.626,0.8125,0,0,0,0,0
2.627,0.625,0,0,0,0,0
2.628,1.5625,0,0,0,0,0
2.629,2.5,0,0,0,0,0
2.63,2.625,0,0,0,0,0
2.631,2.8125,0,0,0,0,0
2.632,2.6875,0,0,0,0,0
2.633,2.5,0,0,0,0,0
2.634,1.875,0,0,0,0,0
2.635,1.25,0,0,0,0,0
2.636,0.625,0,0,0,0,0
2.637,0,0,0,0,0,0
2.638,-0.125,0,0,0,0,0
2.639,-0.3125,0,0,0,0,0
2.64,0.125,0,0,0,0,0
2.641,0.625,0,0,0,0,0
2.642,0.625,0,0,0,0,0
2.643,0.625,0,0,0,0,0
2.644,0.625,0,0,0,0,0
2.645,0.625,0,0,0,0,0
2.646,0.625,0,0,0,0,0
2.647,0.625,0,0,0,0,0
2.648,0.625,0,0,0,0,0
2.649,0.625,0,0,0,0,0
2.65,0.75,0,0,0,0,0
2.651,0.9375,0,0,0,0,0
2.652,0.9375,0,0,0,0,0
2.653,0.9375,0,0,0,0,0
2.654,0.625,0,0,0,0,0
2.655,0.3125,0,0,0,0,0
2.656,1.25,0,0,0,0,0
2.657,2.1875,0,0,0,0,0
2.658,2.3125,0,0,0,0,0
2.659,2.5,0,0,0,0,0
2.66,2.375,0,0,0,0,0
2.661,2.1875,0,0,0,0,0
2.662,1.75,0,0,0,0,0
2.663,1.25,0,0,0,0,0
2.664,0.5,0,0,0,0,0
2.665,-0.3125,0,0,0,0,0
2.666,-0.75,0,0,0,0,0
2.667,-1.25,0,0,0,0,0
2.668,-0.8125,0,0,0,0,0
2.669,-0.3125,0,0,0,0,0
2.67,-0.4375,0,0,0,0,0
2.671,-0.625,0,0,0,0,0
2.672,0.125,0,0,0,0,0
2.673,0.9375,0,0,0,0,0
2.674,0.625,0,0,0,0,0
2.675,0.3125,0,0,0,0,0
2.676,-0.125,0,0,0,0,0
2.677,-0.625,0,0,0,0,0
2.678,-0.625,0,0,0,0,0
2.679,-0.625,0,0,0,0,0
2.68,-0.3125,0,0,0,0,0
2.681,0,0,0,0,0,0
2.682,0.3125,0,0,0,0,0
2.683,0.625,0,0,0,0,0
2.684,1.375,0,0,0,0,0
2.685,2.1875,0,0,0,0,0
2.686,3.125,0,0,0,0,0
2.687,4.0625,0,0,0,0,0
2.688,3.4375,0,0,0,0,0
2.689,2.8125,0,0,0,0,0
2.69,2.6875,0,0,0,0,0
2.691,2.5,0,0,0,0,0
2.692,1.75,0,0,0,0,0
2.693,0.9375,0,0,0,0,0
2.694,0.9375,0,0,0,0,0
2.695,0.9375,0,0,0,0,0
2.696,1.5625,0,0,0,0,0
2.697,2.1875,0,0,0,0,0
2.698,2.0625,0,0,0,0,0
2.699,1.875,0,0,0,0,0
2.7,1.875,0,0,0,0,0
2.701,1.875,0,0,0,0,0
2.702,1.4375,0,0,0,0,0
2.703,0.9375,0,0,0,0,0
2.704,0.625,0,0,0,0,0
2.705,0.3125,1,0,0,0,0
2.706,0.1875,0,0,0,0,0
2.707,0,0,0,0,0,0
2.708,0.75,0,0,0,0,0
2.709,1.5625,0,0,0,0,0
2.71,2.625,0,0,0,0,0
2.711,3.75,0,0,0,0,0
2.712,4.5,0,0,0,0,0
2.713,5.3125,0,0,0,0,0
2.714,5.1875,0,0,0,0,0
2.715,5,0,0,0,0,0
2.716,7.1875,0,0,0,0,0
2.717,9.375,0,0,0,0,0
2.718,10.125,0,0,0,0,0
2.719,10.938,0,0,0,0,0
2.72,12,0,0,0,0,0
2.721,13.125,0,0,0,0,0
2.722,14.5,0,0,0,0,0
2.723,15.938,0,0,0,0,0
2.724,18.125,0,0,0,0,0
2.725,20.313,0,0,0,0,0
2.726,22,0,0,0,0,0
2.727,23.75,0,0,0,0,0
2.728,27.313,0,0,0,0,0
2.729,30.938,0,0,0,0,0
2.73,34.375,0,0,0,0,0
2.731,37.813,0,0,0,0,0
2.732,39.375,0,0,0,0,0
2.733,40.938,0,0,0,0,0
2.734,42.188,0,0,0,0,0
2.735,43.438,0,0,0,0,0
2.736,45,0,0,0,0,0
2.737,46.563,0,0,0,0,0
2.738,47,0,0,0,0,0
2.739,47.5,0,0,0,0,0
2.74,47.188,0,0,0,0,0
2.741,46.875,0,1,0,0,0
2.742,45.5,0,0,0,0,0
2.743,44.063,0,0,0,0,0
2.744,42.063,0,0,0,0,0
2.745,40,0,0,0,0,0
2.746,35.938,0,0,0,0,0
2.747,31.875,0,0,0,0,0
2.748,25.5,0,0,0,0,0
2.749,19.063,0,0,0,0,0
2.75,13.313,0,0,0,0,0
2.751,7.5,0,0,0,0,0
2.752,3,0,0,0,0,0
2.753,-1.5625,0,0,0,0,0
2.754,-6.0625,0,0,0,0,0
2.755,-10.625,0,0,0,0,0
2.756,-13.75,0,0,0,0,0
2.757,-16.875,0,0,0,0,0
2.758,-18.563,0,0,0,0,0
2.759,-20.313,0,0,0,0,0
2.76,-22.938,0,0,0,0,0
2.761,-25.625,0,0,0,0,0
2.762,-27.5,0,0,0,0,0
2.763,-29.375,0,0,0,0,0
2.764,-29.5,0,0,0,0,0
2.765,-29.688,0,0,0,0,0
2.766,-30.125,0,0,0,0,0
2.767,-30.625,0,0,0,0,0
2.768,-30.313,0,0,0,0,0
2.769,-30,0,0,0,0,0
2.77,-28.938,0,0,0,0,0
2.771,-27.813,0,0,0,0,0
2.772,-25,0,0,0,0,0
2.773,-22.188,0,0,0,0,0
2.774,-20.938,0,0,0,0,0
2.775,-19.688,0,0,0,0,0
2.776,-19.688,0,0,0,0,0
2.777,-19.688,0,0,0,0,0
2.778,-19.25,0,0,0,0,0
2.779,-18.75,0,0,0,0,0
2.78,-17.688,0,0,0,0,0
2.781,-16.563,0,0,0,0,0
2.782,-16.563,0,0,0,0,0
2.783,-16.563,0,0,0,0,0
2.784,-16.688,0,0,0,0,0
2.785,-16.875,0,0,0,0,0
2.786,-16.75,0,0,0,0,0
2.787,-16.563,0,0,0,0,0
2.788,-15.938,0,0,0,0,0
2.789,-15.313,0,0,0,0,0
2.79,-13.938,0,0,0,0,0
2.791,-12.5,0,0,0,0,0
2.792,-11.875,0,0,0,0,0
2.793,-11.25,0,0,0,0,0
2.794,-11.25,0,0,0,0,0
2.795,-11.25,0,0,0,0,0
2.796,-11.688,0,0,0,0,0
2.797,-12.188,0,0,0,0,0
2.798,-12.938,0,0,0,0,0
2.799,-13.75,0,0,0,0,0
2.8,-14.063,0,0,0,0,0
2.801,-14.375,0,0,0,0,0
2.802,-15.938,0,0,0,0,0
2.803,-17.5,0,0,0,0,0
2.804,-16.25,0,0,0,0,0
2.805,-15,0,0,0,0,0
2.806,-14.688,0,0,0,0,0
2.807,-14.375,0,0,0,0,0
2.808,-14.5,0,0,0,0,0
2.809,-14.688,0,0,0,0,0
2.81,-13.75,0,0,0,0,0
2.811,-12.813,0,0,0,0,0
2.812,-12.188,0,0,0,0,0
2.813,-11.563,0,0,0,0,0
2.814,-12,0,0,0,0,0
2.815,-12.5,0,0,0,0,0
2.816,-13.25,0,0,0,0,0
2.817,-14.063,0,0,0,0,0
2.818,-13.625,0,0,0,0,0
2.819,-13.125,0,0,0,0,0
2.82,-13,0,0,0,0,0
2.821,-12.813,0,0,0,0,0
2.822,-12.938,0,0,0,0,0
2.823,-13.125,0,0,0,0,0
2.824,-13.75,0,0,0,0,0
2.825,-14.375,0,0,0,0,0
2.826,-14.375,0,0,0,0,0
2.827,-14.375,0,0,0,0,0
2.828,-13.75,0,0,0,0,0
2.829,-13.125,0,0,0,0,0
2.83,-12.5,0,0,0,0,0
2.831,-11.875,0,0,0,0,0
2.832,-11.875,0,0,0,0,0
2.833,-11.875,0,0,0,0,0
2.834,-11.438,0,0,0,0,0
2.835,-10.938,0,0,0,0,0
2.836,-9.5625,0,0,0,0,0
2.837,-8.125,0,0,0,0,0
2.838,-8,0,0,0,0,0
2.839,-7.8125,0,0,0,0,0
2.84,-7.8125,0,0,0,0,0
2.841,-7.8125,0,0,0,0,0
2.842,-7.8125,0,0,0,0,0
2.843,-7.8125,0,0,0,0,0
2.844,-7.375,0,0,0,0,0
2.845,-6.875,0,0,0,0,0
2.846,-6.5625,0,0,0,0,0
2.847,-6.25,0,0,0,0,0
2.848,-6.375,0,0,0,0,0
2.849,-6.5625,0,0,0,0,0
2.85,-6.6875,0,0,0,0,0
2.851,-6.875,0,0,0,0,0
2.852,-5.625,0,0,0,0,0
2.853,-4.375,0,0,0,0,0
2.854,-2.375,0,0,0,0,0
2.855,-0.3125,0,0,1,0,0
2.856,-0.4375,0,0,0,0,0
2.857,-0.625,0,0,0,0,0
2.858,-0.3125,0,0,0,0,0
2.859,0,0,0,0,0,0
2.86,1.5625,0,0,0,0,0
2.861,3.125,0,0,0,0,0
2.862,3.5625,0,0,0,0,0
2.863,4.0625,0,0,0,0,0
2.864,3.9375,0,0,0,0,0
2.865,3.75,0,0,0,0,0
2.866,3.625,0,0,0,0,0
2.867,3.4375,0,0,0,0,0
2.868,3.3125,0,0,0,0,0
2.869,3.125,0,0,0,0,0
2.87,3,0,0,0,0,0
2.871,2.8125,0,0,0,0,0
2.872,2.9375,0,0,0,0,0
2.873,3.125,0,0,0,0,0
2.874,3.25,0,0,0,0,0
2.875,3.4375,0,0,0,0,0
2.876,3.3125,0,0,0,0,0
2.877,3.125,0,0,0,0,0
2.878,3,0,0,0,0,0
2.879,2.8125,0,0,0,0,0
2.88,2.6875,0,0,0,0,0
2.881,2.5,0,0,0,0,0
2.882,3.125,0,0,0,0,0
2.883,3.75,0,0,0,0,0
2.884,4.0625,0,0,0,0,0
2.885,4.375,0,0,0,0,0
2.886,4.375,0,0,0,0,0
2.887,4.375,0,0,0,0,0
2.888,4.5,0,0,0,0,0
2.889,4.6875,0,0,0,0,0
2.89,4.6875,0,0,0,0,0
2.891,4.6875,0,0,0,0,0
2.892,4.5625,0,0,0,0,0
2.893,4.375,0,0,0,0,0
2.894,4.0625,0,0,0,0,0
2.895,3.75,0,0,0,0,0
2.896,3.625,0,0,0,0,0
2.897,3.4375,0,0,0,0,0
2.898,2.8125,0,0,0,0,0
2.899,2.1875,0,0,0,0,0
2.9,2.3125,0,0,0,0,0
2.901,2.5,0,0,0,0,0
2.902,2.0625,0,0,0,0,0
2.903,1.5625,0,0,0,0,0
2.904,1.6875,0,0,0,0,0
2.905,1.875,0,0,0,0,0
2.906,1.875,0,0,0,0,0
2.907,1.875,0,0,0,0,0
2.908,1.75,0,0,0,0,0
2.909,1.5625,0,0,0,0,0
2.91,1.6875,0,0,0,0,0
2.911,1.875,0,0,0,0,0
2.912,2,0,0,0,0,0
2.913,2.1875,0,0,0,0,0
2.914,3.25,0,0,0,0,0
2.915,4.375,0,0,0,0,0
2.916,5,0,0,0,0,0
2.917,5.625,0,0,0,0,0
2.918,5.9375,0,0,0,0,0
2.919,6.25,0,0,0,0,0
2.92,5.8125,0,0,0,0,0
2.921,5.3125,0,0,0,0,0
2.922,5.3125,0,0,0,0,0
2.923,5.3125,0,0,0,0,0
2.924,5.75,0,0,0,0,0
2.925,6.25,0,0,0,0,0
2.926,6.6875,0,0,0,0,0
2.927,7.1875,0,0,0,0,0
2.928,6.875,0,0,0,0,0
2.929,6.5625,0,0,0,0,0
2.93,5.8125,0,0,0,0,0
2.931,5,0,0,0,0,0
2.932,5,0,0,0,0,0
2.933,5,0,0,0,0,0
2.934,4.6875,0,0,0,0,0
2.935,4.375,0,0,0,0,0
2.936,4.0625,0,0,0,0,0
2.937,3.75,0,0,0,0,0
2.938,3.625,0,0,0,0,0
2.939,3.4375,0,0,0,0,0
2.94,4.8125,0,0,0,0,0
2.941,6.25,0,0,0,0,0
2.942,7.1875,0,0,0,0,0
2.943,8.125,0,0,0,0,0
2.944,7.375,0,0,0,0,0
2.945,6.5625,0,0,0,0,0
2.946,5.9375,0,0,0,0,0
2.947,5.3125,0,0,0,0,0
2.948,4.875,0,0,0,0,0
2.949,4.375,0,0,0,0,0
2.95,4.25,0,0,0,0,0
2.951,4.0625,0,0,0,0,0
2.952,4.0625,0,0,0,0,0
2.953,4.0625,0,0,0,0,0
2.954,4.5,0,0,0,0,0
2.955,5,0,0,0,0,0
2.956,5,0,0,0,0,0
2.957,5,0,0,0,0,0
2.958,3.9375,0,0,0,0,0
2.959,2.8125,0,0,0,0,0
2.96,2.6875,0,0,0,0,0
2.961,2.5,0,0,0,0,0
2.962,3.125,0,0,0,0,0
2.963,3.75,0,0,0,0,0
2.964,4.6875,0,0,0,0,0
2.965,5.625,0,0,0,0,0
2.966,5.9375,0,0,0,0,0
2.967,6.25,0,0,0,0,0
2.968,6.125,0,0,0,0,0
2.969,5.9375,0,0,0,0,0
2.97,6.0625,0,0,0,0,0
2.971,6.25,0,0,0,0,0
2.972,6.25,0,0,0,0,0
2.973,6.25,0,0,0,0,0
2.974,6.5625,0,0,0,0,0
2.975,6.875,0,0,0,0,0
2.976,7.3125,0,0,0,0,0
2.977,7.8125,0,0,0,0,0
2.978,7.6875,0,0,0,0,0
2.979,7.5,0,0,0,0,0
2.98,7.375,0,0,0,0,0
2.981,7.1875,0,0,0,0,0
2.982,6.875,0,0,0,0,0
2.983,6.5625,0,0,0,0,0
2.984,6.4375,0,0,0,0,0
2.985,6.25,0,0,0,0,0
2.986,6.375,0,0,0,0,0
2.987,6.5625,0,0,0,0,0
2.988,6.6875,0,0,0,0,0
2.989,6.875,0,0,0,0,0
2.99,6.5625,0,0,0,0,0
2.991,6.25,0,0,0,0,0
2.992,6.25,0,0,0,0,0
2.993,6.25,0,0,0,0,0
2.994,6.375,0,0,0,0,0
2.995,6.5625,0,0,0,0,0
2.996,7.1875,0,0,0,0,0
2.997,7.8125,0,0,0,0,0
2.998,7.9375,0,0,0,0,0
2.999,8.125,0,0,0,0,0
3,8,0,0,0,0,0
3.001,7.8125,0,0,0,0,0
3.002,7.6875,0,0,0,0,0
3.003,7.5,0,0,0,0,0
3.004,7.625,0,0,0,0,0
3.005,7.8125,0,0,0,0,0
3.006,8.4375,0,0,0,0,0
3.007,9.0625,0,0,0,0,0
3.008,8.9375,0,0,0,0,0
3.009,8.75,0,0,0,0,0
3.01,8.625,0,0,0,0,0
3.011,8.4375,0,0,0,0,0
3.012,7.375,0,0,0,0,0
3.013,6.25,0,0,0,0,0
3.014,6.25,0,0,0,0,0
3.015,6.25,0,0,0,0,0
3.016,7.9375,0,0,0,0,0
3.017,9.6875,0,0,0,0,0
3.018,9.6875,0,0,0,0,0
3.019,9.6875,0,0,0,0,0
3.02,9.6875,0,0,0,0,0
3.021,9.6875,0,0,0,0,0
3.022,10.313,0,0,0,0,0
3.023,10.938,0,0,0,0,0
3.024,11.25,0,0,0,0,0
3.025,11.563,0,0,0,0,0
3.026,13,0,0,0,0,0
3.027,14.375,0,0,0,0,0
3.028,13.625,0,0,0,0,0
3.029,12.813,0,0,0,0,0
3.03,13.125,0,0,0,0,0
3.031,13.125,0,0,0,0,0
3.032,11.875,0,0,0,0,0
3.033,10,0,0,0,0,0
3.034,9.25,0,0,0,0,0
3.035,9.6875,0,0,0,0,0
3.036,10,0,0,0,0,0
3.037,10.938,0,0,0,0,0
3.038,11.438,0,0,0,0,0
3.039,11.25,0,0,0,0,0
3.04,12,0,0,0,0,0
3.041,11.563,0,0,0,0,0
3.042,11.125,0,0,0,0,0
3.043,11.25,0,0,0,0,0
3.044,12,0,0,0,1,0
3.045,12.188,0,0,0,0,0
3.046,12.813,0,0,0,0,0
3.047,12.5,0,0,0,0,0
3.048,12.313,0,0,0,0,0
3.049,12.813,0,0,0,0,0
3.05,12.813,0,0,0,0,0
3.051,12.813,0,0,0,0,0
3.052,12.188,0,0,0,0,0
3.053,11.875,0,0,0,0,0
3.054,12.188,0,0,0,0,0
3.055,11.563,0,0,0,0,0
3.056,11.875,0,0,0,0,0
3.057,11.875,0,0,0,0,0
3.058,12.063,0,0,0,0,0
3.059,12.188,0,0,0,0,0
3.06,12,0,0,0,0,0
3.061,11.563,0,0,0,0,0
3.062,11.438,0,0,0,0,0
3.063,10.938,0,0,0,0,0
3.064,11.688,0,0,0,0,0
3.065,11.875,0,0,0,0,0
3.066,12,0,0,0,0,0
3.067,12.188,0,0,0,0,0
3.068,12.5,0,0,0,0,0
3.069,12.188,0,0,0,0,0
3.07,12.5,0,0,0,0,0
3.071,12.5,0,0,0,0,0
3.072,11.563,0,0,0,0,0
3.073,11.25,0,0,0,0,0
3.074,12,0,0,0,0,0
3.075,11.875,0,0,0,0,0
3.076,12,0,0,0,0,0
3.077,11.875,0,0,0,0,0
3.078,11.563,0,0,0,0,0
3.079,11.25,0,0,0,0,0
3.08,10,0,0,0,0,0
3.081,9.375,0,0,0,0,0
3.082,9.5,0,0,0,0,0
3.083,9.375,0,0,0,0,0
3.084,10.438,0,0,0,0,0
3.085,11.25,0,0,0,0,0
3.086,11.125,0,0,0,0,0
3.087,10.938,0,0,0,0,0
3.088,10,0,0,0,0,0
3.089,9.0625,0,0,0,0,0
3.09,9.1875,0,0,0,0,0
3.091,9.375,0,0,0,0,0
3.092,8.9375,0,0,0,0,0
3.093,8.75,0,0,0,0,0
3.094,9.1875,0,0,0,0,0
3.095,8.75,0,0,0,0,0
3.096,8.75,0,0,0,0,0
3.097,9.375,0,0,0,0,0
3.098,8.75,0,0,0,0,0
3.099,8.4375,0,0,0,0,0
3.1,8.75,0,0,0,0,0
3.101,8.75,0,0,0,0,0
3.102,8.125,0,0,0,0,0
3.103,7.8125,0,0,0,0,0
3.104,6.875,0,0,0,0,0
3.105,6.5625,0,0,0,0,0
3.106,5.1875,0,0,0,0,0
3.107,4.375,0,0,0,0,0
3.108,4.8125,0,0,0,0,0
3.109,4.6875,0,0,0,0,0
3.11,5.625,0,0,0,0,0
3.111,6.875,0,0,0,0,0
3.112,6.75,0,0,0,0,0
3.113,6.25,0,0,0,0,0
3.114,7,0,0,0,0,0
3.115,8.125,0,0,0,0,0
3.116,7.8125,0,0,0,0,0
3.117,7.5,0,0,0,0,0
3.118,6.875,0,0,0,0,0
3.119,7.1875,0,0,0,0,0
3.12,7.0625,0,0,0,0,0
3.121,7.1875,0,0,0,0,0
3.122,7.0625,0,0,0,0,0
3.123,6.875,0,0,0,0,0
3.124,6.6875,0,0,0,0,0
3.125,6.25,0,0,0,0,0
3.126,6.4375,0,0,0,0,0
3.127,6.5625,0,0,0,0,0
3.128,6.0625,0,0,0,0,0
3.129,6.25,0,0,0,0,0
3.13,6.75,0,0,0,0,0
3.131,6.5625,0,0,0,0,0
3.132,5.8125,0,0,0,0,0
3.133,5,0,0,0,0,0
3.134,4.375,0,0,0,0,0
3.135,3.75,0,0,0,0,0
3.136,3.625,0,0,0,0,0
3.137,3.4375,0,0,0,0,0
3.138,3.875,0,0,0,0,0
3.139,3.75,0,0,0,0,0
3.14,3.75,0,0,0,0,0
3.141,4.0625,0,0,0,0,0
3.142,4.0625,0,0,0,0,0
3.143,4.375,0,0,0,0,0
3.144,4.1875,0,0,0,0,0
3.145,3.75,0,0,0,0,0
3.146,4.0625,0,0,0,0,0
3.147,4.375,0,0,0,0,0
3.148,4.0625,0,0,0,0,0
3.149,4.0625,0,0,0,0,1
3.15,3.3125,0,0,0,0,0
3.151,2.8125,0,0,0,0,0
3.152,3.125,0,0,0,0,0
3.153,2.8125,0,0,0,0,0
3.154,3.25,0,0,0,0,0
3.155,3.75,0,0,0,0,0
3.156,4.0625,0,0,0,0,0
3.157,5,0,0,0,0,0
3.158,5.125,0,0,0,0,0
3.159,4.375,0,0,0,0,0
3.16,4.875,0,0,0,0,0
3.161,4.6875,0,0,0,0,0
3.162,4.375,0,0,0,0,0
3.163,4.375,0,0,0,0,0
3.164,4.6875,0,0,0,0,0
3.165,4.6875,0,0,0,0,0
3.166,5,0,0,0,0,0
3.167,4.0625,0,0,0,0,0
3.168,3.9375,0,0,0,0,0
3.169,3.4375,0,0,0,0,0
3.17,3.5625,0,0,0,0,0
3.171,4.0625,0,0,0,0,0
3.172,4.6875,0,0,0,0,0
3.173,5.3125,0,0,0,0,0
3.174,5.3125,0,0,0,0,0
3.175,5,0,0,0,0,0
3.176,5.125,0,0,0,0,0
3.177,5.3125,0,0,0,0,0
3.178,5.9375,0,0,0,0,0
3.179,6.875,0,0,0,0,0
3.18,6.5625,0,0,0,0,0
3.181,5.9375,0,0,0,0,0
3.182,5.625,0,0,0,0,0
3.183,5.625,0,0,0,0,0
3.184,5.75,0,0,0,0,0
3.185,6.25,0,0,0,0,0
3.186,5.9375,0,0,0,0,0
3.187,5,0,0,0,0,0
3.188,5.75,0,0,0,0,0
3.189,5.9375,0,0,0,0,0
3.19,5.3125,0,0,0,0,0
3.191,4.6875,0,0,0,0,0
3.192,5,0,0,0,0,0
3.193,5,0,0,0,0,0
3.194,5,0,0,0,0,0
3.195,5.3125,0,0,0,0,0
3.196,4.875,0,0,0,0,0
3.197,5,0,0,0,0,0
3.198,5.4375,0,0,0,0,0
3.199,5.625,0,0,0,0,0
3.2,5.3125,0,0,0,0,0
3.201,5,0,0,0,0,0
3.202,4.6875,0,0,0,0,0
3.203,5,0,0,0,0,0
3.204,4.5625,0,0,0,0,0
3.205,4.6875,0,0,0,0,0
3.206,5,0,0,0,0,0
3.207,4.6875,0,0,0,0,0
3.208,4.8125,0,0,0,0,0
3.209,5.3125,0,0,0,0,0
3.21,5,0,0,0,0,0
3.211,5,0,0,0,0,0
3.212,5,0,0,0,0,0
3.213,5,0,0,0,0,0
3.214,4.6875,0,0,0,0,0
3.215,3.75,0,0,0,0,0
3.216,3.3125,0,0,0,0,0
3.217,3.4375,0,0,0,0,0
3.218,4.375,0,0,0,0,0
3.219,5.625,0,0,0,0,0
3.22,6.375,0,0,0,0,0
3.221,7.1875,0,0,0,0,0
3.222,7.5,0,0,0,0,0
3.223,7.8125,0,0,0,0,0
3.224,7.6875,0,0,0,0,0
3.225,7.5,0,0,0,0,0
3.226,7.5,0,0,0,0,0
3.227,7.1875,0,0,0,0,0
3.228,7.1875,0,0,0,0,0
3.229,6.25,0,0,0,0,0
3.23,5.9375,0,0,0,0,0
3.231,5.625,0,0,0,0,0
3.232,5.625,0,0,0,0,0
3.233,5.9375,0,0,0,0,0
3.234,6.5625,0,0,0,0,0
3.235,6.5625,0,0,0,0,0
3.236,7,0,0,0,0,0
3.237,7.5,0,0,0,0,0
3.238,7.0625,0,0,0,0,0
3.239,6.25,0,0,0,0,0
3.24,5.9375,0,0,0,0,0
3.241,5.625,0,0,0,0,0
3.242,5,0,0,0,0,0
3.243,5.3125,0,0,0,0,0
3.244,5.625,0,0,0,0,0
3.245,5.3125,0,0,0,0,0
3.246,5.8125,0,0,0,0,0
3.247,5.625,0,0,0,0,0
3.248,6.25,0,0,0,0,0
3.249,6.5625,0,0,0,0,0
3.25,7,0,0,0,0,0
3.251,7.1875,0,0,0,0,0
3.252,6.75,0,0,0,0,0
3.253,6.25,0,0,0,0,0
3.254,6.25,0,0,0,0,0
3.255,6.5625,0,0,0,0,0
3.256,6.125,0,0,0,0,0
3.257,5.625,0,0,0,0,0
3.258,5.5,0,0,0,0,0
3.259,5.3125,0,0,0,0,0
3.26,5.1875,0,0,0,0,0
3.261,5,0,0,0,0,0
3.262,5.125,0,0,0,0,0
3.263,5.3125,0,0,0,0,0
3.264,4.6875,0,0,0,0,0
3.265,4.6875,0,0,0,0,0
3.266,5.125,0,0,0,0,0
3.267,5,0,0,0,0,0
3.268,6.6875,0,0,0,0,0
3.269,8.4375,0,0,0,0,0
3.27,7.6875,0,0,0,0,0
3.271,7.1875,0,0,0,0,0
3.272,7.5,0,0,0,0,0
3.273,7.1875,0,0,0,0,0
3.274,7.1875,0,0,0,0,0
3.275,6.5625,0,0,0,0,0
3.276,7.1875,0,0,0,0,0
3.277,7.5,0,0,0,0,0
3.278,7.0625,0,0,0,0,0
3.279,6.875,0,0,0,0,0
3.28,6.125,0,0,0,0,0
3.281,4.6875,0,0,0,0,0
3.282,4.25,0,0,0,0,0
3.283,3.4375,0,0,0,0,0
3.284,4.375,0,0,0,0,0
3.285,4.375,0,0,0,0,0
3.286,5.3125,0,0,0,0,0
3.287,5.3125,0,0,0,0,0
3.288,6.5625,0,0,0,0,0
3.289,5.9375,0,0,0,0,0
3.29,6.0625,0,0,0,0,0
3.291,5.9375,0,0,0,0,0
3.292,5.4375,0,0,0,0,0
3.293,5.625,0,0,0,0,0
3.294,5.75,0,0,0,0,0
3.295,5.9375,0,0,0,0,0
3.296,6.0625,0,0,0,0,0
3.297,5.9375,0,0,0,0,0
3.298,5.3125,0,0,0,0,0
3.299,5.3125,0,0,0,0,0
3.3,5,0,0,0,0,0
3.301,5.3125,0,0,0,0,0
3.302,5.75,0,0,0,0,0
3.303,6.5625,0,0,0,0,0
3.304,6.4375,0,0,0,0,0
3.305,6.25,0,0,0,0,0
3.306,5.9375,0,0,0,0,0
3.307,5.625,0,0,0,0,0
3.308,6.0625,0,0,0,0,0
3.309,6.5625,0,0,0,0,0
3.31,6.0625,0,0,0,0,0
3.311,6.25,0,0,0,0,0
3.312,7.1875,0,0,0,0,0
3.313,9.0625,0,0,0,0,0
3.314,9.0625,0,0,0,0,0
3.315,8.75,0,0,0,0,0
3.316,8.75,0,0,0,0,0
3.317,8.4375,0,0,0,0,0
3.318,9.375,0,0,0,0,0
3.319,8.4375,0,0,0,0,0
3.32,7.6875,0,0,0,0,0
3.321,7.1875,0,0,0,0,0
3.322,8.125,0,0,0,0,0
3.323,7.8125,0,0,0,0,0
3.324,7.1875,0,0,0,0,0
3.325,6.875,0,0,0,0,0
3.326,7.1875,0,0,0,0,0
3.327,7.8125,0,0,0,0,0
3.328,7.8125,0,0,0,0,0
3.329,7.8125,0,0,0,0,0
3.33,8.3125,0,0,0,0,0
3.331,8.125,0,0,0,0,0
3.332,8.625,0,0,0,0,0
3.333,8.4375,0,0,0,0,0
3.334,8.5625,0,0,0,0,0
3.335,8.4375,0,0,0,0,0
3.336,8.75,0,0,0,0,0
3.337,10,0,0,0,0,0
3.338,10.125,0,0,0,0,0
3.339,10.625,0,0,0,0,0
3.34,10.625,0,0,0,0,0
3.341,10.938,0,0,0,0,0
3.342,10.938,0,0,0,0,0
3.343,10.938,0,0,0,0,0
3.344,10.813,0,0,0,0,0
3.345,10.625,0,0,0,0,0
3.346,10,0,0,0,0,0
3.347,10.625,0,0,0,0,0
3.348,10.125,0,0,0,0,0
3.349,10.313,0,0,0,0,0
3.35,10.5,0,0,0,0,0
3.351,10,0,0,0,0,0
3.352,9.375,0,0,0,0,0
3.353,9.375,0,0,0,0,0
3.354,9.375,0,0,0,0,0
3.355,8.75,0,0,0,0,0
3.356,8.4375,0,0,0,0,0
3.357,8.75,0,0,0,0,0
3.358,8.4375,0,0,0,0,0
3.359,8.75,0,0,0,0,0
3.36,9.6875,0,0,0,0,0
3.361,10.938,0,0,0,0,0
3.362,10.75,0,0,0,0,0
3.363,10.625,0,0,0,0,0
3.364,10.313,0,0,0,0,0
3.365,9.6875,0,0,0,0,0
3.366,10.625,0,0,0,0,0
3.367,10.625,0,0,0,0,0
3.368,10.813,0,0,0,0,0
3.369,10.938,0,0,0,0,0
3.37,11.688,0,0,0,0,0
3.371,11.875,0,0,0,0,0
3.372,12.313,0,0,0,0,0
3.373,12.188,0,0,0,0,0
3.374,12.813,0,0,0,0,0
3.375,13.438,0,0,0,0,0
3.376,12.5,0,0,0,0,0
3.377,12.188,0,0,0,0,0
3.378,10.938,0,0,0,0,0
3.379,9.6875,0,0,0,0,0
3.38,9.375,0,0,0,0,0
3.381,9.375,0,0,0,0,0
3.382,9.8125,0,0,0,0,0
3.383,9.6875,0,0,0,0,0
3.384,10.125,0,0,0,0,0
3.385,9.6875,0,0,0,0,0
3.386,9.375,0,0,0,0,0
3.387,8.75,0,0,0,0,0
3.388,8.875,0,0,0,0,0
3.389,8.75,0,0,0,0,0
3.39,9.1875,0,0,0,0,0
3.391,8.75,0,0,0,0,0
3.392,7.375,0,0,0,0,0
3.393,6.25,0,0,0,0,0
3.394,4.5625,0,0,0,0,0
3.395,3.4375,0,0,0,0,0
3.396,4.6875,0,0,0,0,0
3.397,5.625,0,0,0,0,0
3.398,6.25,0,0,0,0,0
3.399,7.1875,0,0,0,0,0
3.4,7.1875,0,0,0,0,0
3.401,7.5,0,0,0,0,0
3.402,6.25,0,0,0,0,0
3.403,5.3125,0,0,0,0,0
3.404,5.4375,0,0,0,0,0
3.405,5.3125,0,0,0,0,0
3.406,5.5,0,0,0,0,0
3.407,5.625,0,0,0,0,0
3.408,5.1875,0,0,0,0,0
3.409,4.6875,0,0,0,0,0
3.41,5.3125,0,0,0,0,0
3.411,5.3125,0,0,0,0,0
3.412,4.875,0,0,0,0,0
3.413,4.375,0,0,0,0,0
3.414,5.625,0,0,0,0,0
3.415,6.25,0,0,0,0,0
3.416,4.875,0,0,0,0,0
3.417,4.375,0,0,0,0,0
3.418,3.75,0,0,0,0,0
3.419,3.75,0,0,0,0,0
3.42,3.875,0,0,0,0,0
3.421,4.0625,0,0,0,0,0
3.422,4.375,0,0,0,0,0
3.423,4.375,0,0,0,0,0
3.424,4.1875,0,0,0,0,0
3.425,4.0625,0,0,0,0,0
3.426,4.375,0,0,0,0,0
3.427,4.0625,0,0,0,0,0
3.428,4.25,0,0,0,0,0
3.429,4.0625,0,0,0,0,0
3.43,3.9375,0,0,0,0,0
3.431,3.75,0,0,0,0,0
3.432,3.75,0,0,0,0,0
3.433,3.75,0,0,0,0,0
3.434,4.0625,0,0,0,0,0
3.435,3.4375,0,0,0,0,0
3.436,3.4375,0,0,0,0,0
3.437,3.4375,0,0,0,0,0
3.438,2.5,0,0,0,0,0
3.439,2.8125,0,0,0,0,0
3.44,3.125,0,0,0,0,0
3.441,3.75,0,0,0,0,0
3.442,3.75,0,0,0,0,0
3.443,3.75,0,0,0,0,0
3.444,3.75,0,0,0,0,0
3.445,4.0625,0,0,0,0,0
3.446,3.875,0,0,0,0,0
3.447,4.375,0,0,0,0,0
3.448,4.0625,0,0,0,0,0
3.449,4.0625,0,0,0,0,0
3.45,4.25,0,0,0,0,0
3.451,4.375,0,0,0,0,0
3.452,3.75,0,0,0,0,0
3.453,2.8125,0,0,0,0,0
3.454,2.8125,0,0,0,0,0
3.455,3.125,0,0,0,0,0
3.456,3.4375,0,0,0,0,0
3.457,4.0625,0,0,0,0,0
3.458,4.5,0,0,0,0,0
3.459,4.375,0,0,0,0,0
3.46,3.9375,0,0,0,0,0
3.461,3.4375,0,0,0,0,0
3.462,4.0625,0,0,0,0,0
3.463,5,0,0,0,0,0
3.464,4.8125,0,0,0,0,0
3.465,5.625,0,0,0,0,0
3.466,6.25,0,0,0,0,0
3.467,5.625,0,0,0,0,0
3.468,5.3125,0,0,0,0,0
3.469,4.6875,0,0,0,0,0
3.47,5.4375,0,0,0,0,0
3.471,5.3125,0,0,0,0,0
3.472,4.25,0,0,0,0,0
3.473,3.75,0,0,0,0,0
3.474,4.0625,0,0,0,0,0
3.475,4.375,0,0,0,0,0
3.476,3.3125,0,0,0,0,0
3.477,4.0625,0,0,0,0,0
3.478,4.1875,0,0,0,0,0
3.479,4.6875,0,0,0,0,0
3.48,3.875,0,0,0,0,0
3.481,3.4375,0,0,0,0,0
3.482,3.625,0,0,0,0,0
3.483,3.125,0,0,0,0,0
3.484,3.625,0,0,0,0,0
3.485,3.125,1,0,0,0,0
3.486,2.375,0,0,0,0,0
3.487,0.9375,0,0,0,0,0
3.488,1.875,0,0,0,0,0
3.489,2.8125,0,0,0,0,0
3.49,3.875,0,0,0,0,0
3.491,4.6875,0,0,0,0,0
3.492,4.375,0,0,0,0,0
3.493,4.0625,0,0,0,0,0
3.494,4.25,0,0,0,0,0
3.495,4.375,0,0,0,0,0
3.496,4.0625,0,0,0,0,0
3.497,5.3125,0,0,0,0,0
3.498,7,0,0,0,0,0
3.499,9.0625,0,0,0,0,0
3.5,8.625,0,0,0,0,0
3.501,8.75,0,0,0,0,0
3.502,9.375,0,0,0,0,0
3.503,9.375,0,0,0,0,0
3.504,9.875,0,0,0,0,0
3.505,10.625,0,0,0,0,0
3.506,12.313,0,0,0,0,0
3.507,13.438,0,0,0,0,0
3.508,14.813,0,0,0,0,0
3.509,16.25,0,0,0,0,0
3.51,18.75,0,0,0,0,0
3.511,21.563,0,0,0,0,0
3.512,23.75,0,0,0,0,0
3.513,26.25,0,0,0,0,0
3.514,28.438,0,0,0,0,0
3.515,30.938,0,0,0,0,0
3.516,33,0,0,0,0,0
3.517,35,0,0,0,0,0
3.518,37.188,0,0,0,0,0
3.519,39.375,0,0,0,0,0
3.52,41.875,0,0,0,0,0
3.521,44.375,0,0,0,0,0
3.522,45.313,0,0,0,0,0
3.523,45.938,0,0,0,0,0
3.524,46.875,0,0,0,0,0
3.525,48.125,0,0,0,0,0
3.526,49.5,0,0,0,0,0
3.527,49.688,0,0,0,0,0
3.528,48.75,0,0,0,0,0
3.529,47.188,0,0,0,0,0
3.53,45,0,0,0,0,0
3.531,41.875,0,0,0,0,0
3.532,39.688,0,1,0,0,0
3.533,36.875,0,0,0,0,0
3.534,32.188,0,0,0,0,0
3.535,25.938,0,0,0,0,0
3.536,19.688,0,0,0,0,0
3.537,14.375,0,0,0,0,0
3.538,10.438,0,0,0,0,0
3.539,6.5625,0,0,0,0,0
3.54,2.1875,0,0,0,0,0
3.541,-1.5625,0,0,0,0,0
3.542,-5,0,0,0,0,0
3.543,-9.375,0,0,0,0,0
3.544,-12.5,0,0,0,0,0
3.545,-15.313,0,0,0,0,0
3.546,-16.563,0,0,0,0,0
3.547,-18.438,0,0,0,0,0
3.548,-20.813,0,0,0,0,0
3.549,-22.813,0,0,0,0,0
3.55,-23.938,0,0,0,0,0
3.551,-24.063,0,0,0,0,0
3.552,-24.688,0,0,0,0,0
3.553,-24.688,0,0,0,0,0
3.554,-25.438,0,0,0,0,0
3.555,-25.625,0,0,0,0,0
3.556,-24.063,0,0,0,0,0
3.557,-23.438,0,0,0,0,0
3.558,-21.563,0,0,0,0,0
3.559,-19.688,0,0,0,0,0
3.56,-18,0,0,0,0,0
3.561,-17.188,0,0,0,0,0
3.562,-16.563,0,0,0,0,0
3.563,-15.625,0,0,0,0,0
3.564,-15.75,0,0,0,0,0
3.565,-15.625,0,0,0,0,0
3.566,-15.313,0,0,0,0,0
3.567,-15.313,0,0,0,0,0
3.568,-14.875,0,0,0,0,0
3.569,-14.063,0,0,0,0,0
3.57,-13.875,0,0,0,0,0
3.571,-14.375,0,0,0,0,0
3.572,-14.688,0,0,0,0,0
3.573,-15,0,0,0,0,0
3.574,-15.313,0,0,0,0,0
3.575,-15,0,0,0,0,0
3.576,-13,0,0,0,0,0
3.577,-11.563,0,0,0,0,0
3.578,-10.188,0,0,0,0,0
3.579,-9.0625,0,0,0,0,0
3.58,-8.75,0,0,0,0,0
3.581,-9.0625,0,0,0,0,0
3.582,-10.125,0,0,0,0,0
3.583,-11.563,0,0,0,0,0
3.584,-10.938,0,0,0,0,0
3.585,-10.625,0,0,0,0,0
3.586,-10.188,0,0,0,0,0
3.587,-10.313,0,0,0,0,0
3.588,-10.75,0,0,0,0,0
3.589,-10.938,0,0,0,0,0
3.59,-9.875,0,0,0,0,0
3.591,-8.75,0,0,0,0,0
3.592,-9.1875,0,0,0,0,0
3.593,-9.0625,0,0,0,0,0
3.594,-8.9375,0,0,0,0,0
3.595,-9.375,0,0,0,0,0
3.596,-9.5,0,0,0,0,0
3.597,-10.313,0,0,0,0,0
3.598,-10.313,0,0,0,0,0
3.599,-10.938,0,0,0,0,0
3.6,-11.25,0,0,0,0,0
3.601,-11.25,0,0,0,0,0
3.602,-11.25,0,0,0,0,0
3.603,-11.25,0,0,0,0,0
3.604,-12.188,0,0,0,0,0
3.605,-12.813,0,0,0,0,0
3.606,-12.5,0,0,0,0,0
3.607,-12.188,0,0,0,0,0
3.608,-10.625,0,0,0,0,0
3.609,-9.375,0,0,0,0,0
3.61,-9.5625,0,0,0,0,0
3.611,-9.375,0,0,0,0,0
3.612,-10,0,0,0,0,0
3.613,-10.313,0,0,0,0,0
3.614,-10.125,0,0,0,0,0
3.615,-10.313,0,0,0,0,0
3.616,-9.5625,0,0,0,0,0
3.617,-8.75,0,0,0,0,0
3.618,-8.75,0,0,0,0,0
3.619,-9.0625,0,0,0,0,0
3.62,-8.875,0,0,0,0,0
3.621,-9.0625,0,0,0,0,0
3.622,-8,0,0,0,0,0
3.623,-7.5,0,0,0,0,0
3.624,-6.5625,0,0,0,0,0
3.625,-5.625,0,0,0,0,0
3.626,-6.375,0,0,0,0,0
3.627,-5.9375,0,0,0,0,0
3.628,-5.4375,0,0,0,0,0
3.629,-5,0,0,0,0,0
3.63,-4.25,0,0,0,0,0
3.631,-3.4375,0,0,0,0,0
3.632,-2.5,0,0,0,0,0
3.633,-1.5625,0,0,0,0,0
3.634,-1.875,0,0,0,0,0
3.635,-2.1875,0,0,0,0,0
3.636,-1.6875,0,0,0,0,0
3.637,-1.5625,0,0,0,0,0
3.638,-0.9375,0,0,0,0,0
3.639,-0.625,0,0,0,0,0
3.64,0,0,0,0,0,0
3.641,1.25,0,0,0,0,0
3.642,2.1875,0,0,0,0,0
3.643,2.5,0,0,0,0,0
3.644,2.375,0,0,0,0,0
3.645,2.5,0,0,0,0,0
3.646,2.5,0,0,0,0,0
3.647,2.8125,0,0,0,0,0
3.648,3.25,0,0,0,0,0
3.649,4.375,0,0,0,0,0
3.65,4.25,0,0,0,0,0
3.651,4.0625,0,0,0,0,0
3.652,3.625,0,0,0,0,0
3.653,2.5,0,0,0,0,0
3.654,3,0,0,0,0,0
3.655,2.8125,0,0,0,0,0
3.656,3.25,0,0,0,0,0
3.657,3.125,0,0,0,0,0
3.658,3.125,0,0,0,0,0
3.659,3.125,0,0,0,0,0
3.66,3.75,0,0,0,0,0
3.661,5,0,0,0,0,0
3.662,5,0,0,0,0,0
3.663,4.0625,0,0,0,0,0
3.664,4.1875,0,0,0,0,0
3.665,5,0,0,0,0,0
3.666,4.6875,0,0,1,0,0
3.667,5,0,0,0,0,0
3.668,4.6875,0,0,0,0,0
3.669,4.6875,0,0,0,0,0
3.67,4.25,0,0,0,0,0
3.671,3.4375,0,0,0,0,0
3.672,4.1875,0,0,0,0,0
3.673,5.3125,0,0,0,0,0
3.674,5.75,0,0,0,0,0
3.675,6.25,0,0,0,0,0
3.676,6.5625,0,0,0,0,0
3.677,6.25,0,0,0,0,0
3.678,6.4375,0,0,0,0,0
3.679,5,0,0,0,0,0
3.68,5.1875,0,0,0,0,0
3.681,5.3125,0,0,0,0,0
3.682,5.625,0,0,0,0,0
3.683,5.625,0,0,0,0,0
3.684,5.5,0,0,0,0,0
3.685,5.3125,0,0,0,0,0
3.686,5.9375,0,0,0,0,0
3.687,5.625,0,0,0,0,0
3.688,5.75,0,0,0,0,0
3.689,6.25,0,0,0,0,0
3.69,6.375,0,0,0,0,0
3.691,6.5625,0,0,0,0,0
3.692,6.5625,0,0,0,0,0
3.693,6.875,0,0,0,0,0
3.694,6.6875,0,0,0,0,0
3.695,6.875,0,0,0,0,0
3.696,7.0625,0,0,0,0,0
3.697,7.1875,0,0,0,0,0
3.698,6.75,0,0,0,0,0
3.699,5.9375,0,0,0,0,0
3.7,5.5,0,0,0,0,0
3.701,5.3125,0,0,0,0,0
3.702,5.3125,0,0,0,0,0
3.703,5.9375,0,0,0,0,0
3.704,5.3125,0,0,0,0,0
3.705,4.375,0,0,0,0,0
3.706,5.125,0,0,0,0,0
3.707,5.3125,0,0,0,0,0
3.708,4.6875,0,0,0,0,0
3.709,4.375,0,0,0,0,0
3.71,5.3125,0,0,0,0,0
3.711,6.5625,0,0,0,0,0
3.712,6.375,0,0,0,0,0
3.713,7.1875,0,0,0,0,0
3.714,7.1875,0,0,0,0,0
3.715,7.5,0,0,0,0,0
3.716,7.375,0,0,0,0,0
3.717,6.875,0,0,0,0,0
3.718,6.875,0,0,0,0,0
3.719,6.5625,0,0,0,0,0
3.72,6.25,0,0,0,0,0
3.721,5.625,0,0,0,0,0
3.722,5.625,0,0,0,0,0
3.723,5.9375,0,0,0,0,0
3.724,5.5,0,0,0,0,0
3.725,5.3125,0,0,0,0,0
3.726,5.5,0,0,0,0,0
3.727,5.9375,0,0,0,0,0
3.728,5.5,0,0,0,0,0
3.729,5.3125,0,0,0,0,0
3.73,5.3125,0,0,0,0,0
3.731,5.3125,0,0,0,0,0
3.732,5.3125,0,0,0,0,0
3.733,5.3125,0,0,0,0,0
3.734,5.625,0,0,0,0,0
3.735,5.3125,0,0,0,0,0
3.736,5.1875,0,0,0,0,0
3.737,4.6875,0,0,0,0,0
3.738,6.5625,0,0,0,0,0
3.739,8.4375,0,0,0,0,0
3.74,8.875,0,0,0,0,0
3.741,8.75,0,0,0,0,0
3.742,8.4375,0,0,0,0,0
3.743,7.1875,0,0,0,0,0
3.744,6.25,0,0,0,0,0
3.745,5.3125,0,0,0,0,0
3.746,5.3125,0,0,0,0,0
3.747,5.3125,0,0,0,0,0
3.748,6.0625,0,0,0,0,0
3.749,6.5625,0,0,0,0,0
3.75,7.0625,0,0,0,0,0
3.751,6.875,0,0,0,0,0
3.752,6.25,0,0,0,0,0
3.753,5.9375,0,0,0,0,0
3.754,5.625,0,0,0,0,0
3.755,5.625,0,0,0,0,0
3.756,5.625,0,0,0,0,0
3.757,5.625,0,0,0,0,0
3.758,5.9375,0,0,0,0,0
3.759,6.5625,0,0,0,0,0
3.76,7.625,0,0,0,0,0
3.761,8.75,0,0,0,0,0
3.762,9.0625,0,0,0,0,0
3.763,9.6875,0,0,0,0,0
3.764,8.625,0,0,0,0,0
3.765,8.4375,0,0,0,0,0
3.766,8.125,0,0,0,0,0
3.767,8.125,0,0,0,0,0
3.768,7.5,0,0,0,0,0
3.769,7.5,0,0,0,0,0
3.77,7.375,0,0,0,0,0
3.771,7.5,0,0,0,0,0
3.772,7.3125,0,0,0,0,0
3.773,7.5,0,0,0,0,0
3.774,7.9375,0,0,0,0,0
3.775,7.8125,0,0,0,0,0
3.776,7.6875,0,0,0,0,0
3.777,7.5,0,0,0,0,0
3.778,7.375,0,0,0,0,0
3.779,7.5,0,0,0,0,0
3.78,7.9375,0,0,0,0,0
3.781,9.375,0,0,0,0,0
3.782,9.25,0,0,0,0,0
3.783,9.0625,0,0,0,0,0
3.784,8.4375,0,0,0,0,0
3.785,8.125,0,0,0,0,0
3.786,6.875,0,0,0,0,0
3.787,6.25,0,0,0,0,0
3.788,5.9375,0,0,0,0,0
3.789,5.9375,0,0,0,0,0
3.79,7.5,0,0,0,0,0
3.791,8.75,0,0,0,0,0
3.792,9.375,0,0,0,0,0
3.793,9.6875,0,0,0,0,0
3.794,9.5625,0,0,0,0,0
3.795,9.6875,0,0,0,0,0
3.796,9.25,0,0,0,0,0
3.797,9.0625,0,0,0,0,0
3.798,9.6875,0,0,0,0,0
3.799,10.313,0,0,0,0,0
3.8,10,0,0,0,0,0
3.801,10,0,0,0,0,0
3.802,10,0,0,0,0,0
3.803,10,0,0,0,0,0
3.804,10.438,0,0,0,0,0
3.805,10.313,0,0,0,0,0
3.806,9.8125,0,0,0,0,0
3.807,10,0,0,0,0,0
3.808,9.375,0,0,0,0,0
3.809,9.6875,0,0,0,0,0
3.81,10,0,0,0,0,0
3.811,10.625,0,0,0,0,0
3.812,10.75,0,0,0,0,0
3.813,10.313,0,0,0,0,0
3.814,10.625,0,0,0,0,0
3.815,10.625,0,0,0,0,0
3.816,10.813,0,0,0,0,0
3.817,10.313,0,0,0,0,0
3.818,10,0,0,0,0,0
3.819,10,0,0,0,0,0
3.82,10.188,0,0,0,0,0
3.821,10,0,0,0,0,0
3.822,9.875,0,0,0,0,0
3.823,10,0,0,0,0,0
3.824,10.625,0,0,0,0,0
3.825,11.25,0,0,0,0,0
3.826,11.375,0,0,0,0,0
3.827,11.563,0,0,0,0,0
3.828,11.688,0,0,0,0,0
3.829,11.875,0,0,0,0,0
3.83,12.188,0,0,0,1,0
3.831,12.5,0,0,0,0,0
3.832,13,0,0,0,0,0
3.833,13.125,0,0,0,0,0
3.834,12.5,0,0,0,0,0
3.835,11.875,0,0,0,0,0
3.836,12.625,0,0,0,0,0
3.837,12.188,0,0,0,0,0
3.838,13.125,0,0,0,0,0
3.839,12.813,0,0,0,0,0
3.84,12.188,0,0,0,0,0
3.841,12.188,0,0,0,0,0
3.842,12.688,0,0,0,0,0
3.843,12.5,0,0,0,0,0
3.844,12.188,0,0,0,0,0
3.845,12.5,0,0,0,0,0
3.846,12.188,0,0,0,0,0
3.847,12.188,0,0,0,0,0
3.848,11.25,0,0,0,0,0
3.849,10,0,0,0,0,0
3.85,9.875,0,0,0,0,0
3.851,9.6875,0,0,0,0,0
3.852,9.8125,0,0,0,0,0
3.853,10.313,0,0,0,0,0
3.854,10.938,0,0,0,0,0
3.855,10.938,0,0,0,0,0
3.856,10.188,0,0,0,0,0
3.857,10.313,0,0,0,0,0
3.858,11.25,0,0,0,0,0
3.859,11.875,0,0,0,0,0
3.86,11.25,0,0,0,0,0
3.861,10.938,0,0,0,0,0
3.862,10.313,0,0,0,0,0
3.863,10.938,0,0,0,0,0
3.864,11.063,0,0,0,0,0
3.865,11.25,0,0,0,0,0
3.866,10.813,0,0,0,0,0
3.867,10.625,0,0,0,0,0
3.868,9.875,0,0,0,0,0
3.869,9.6875,0,0,0,0,0
3.87,10.625,0,0,0,0,0
3.871,11.875,0,0,0,0,0
3.872,11.25,0,0,0,0,0
3.873,10.625,0,0,0,0,0
3.874,10,0,0,0,0,0
3.875,10,0,0,0,0,0
3.876,8.9375,0,0,0,0,0
3.877,8.125,0,0,0,0,0
3.878,7.0625,0,0,0,0,0
3.879,6.875,0,0,0,0,0
3.88,7.625,0,0,0,0,0
3.881,7.8125,0,0,0,0,0
3.882,7.9375,0,0,0,0,0
3.883,7.8125,0,0,0,0,0
3.884,7.5,0,0,0,0,0
3.885,7.8125,0,0,0,0,0
3.886,7.1875,0,0,0,0,0
3.887,6.25,0,0,0,0,0
3.888,6.25,0,0,0,0,0
3.889,6.25,0,0,0,0,0
3.89,6.25,0,0,0,0,0
3.891,5.625,0,0,0,0,0
3.892,6.0625,0,0,0,0,0
3.893,5.9375,0,0,0,0,0
3.894,6.375,0,0,0,0,0
3.895,7.5,0,0,0,0,0
3.896,8.25,0,0,0,0,0
3.897,9.0625,0,0,0,0,0
3.898,8.5625,0,0,0,0,0
3.899,8.4375,0,0,0,0,0
3.9,7.1875,0,0,0,0,0
3.901,7.1875,0,0,0,0,0
3.902,6.125,0,0,0,0,0
3.903,5,0,0,0,0,0
3.904,4.0625,0,0,0,0,0
3.905,2.5,0,0,0,0,0
3.906,2.9375,0,0,0,0,0
3.907,3.4375,0,0,0,0,0
3.908,3.875,0,0,0,0,0
3.909,5,0,0,0,0,0
3.91,4.8125,0,0,0,0,0
3.911,5.625,0,0,0,0,0
3.912,5.3125,0,0,0,0,0
3.913,5,0,0,0,0,0
3.914,4.6875,0,0,0,0,0
3.915,4.0625,0,0,0,0,0
3.916,4.5,0,0,0,0,0
3.917,4.375,0,0,0,0,0
3.918,4.375,0,0,0,0,0
3.919,4.6875,0,0,0,0,0
3.92,4.25,0,0,0,0,0
3.921,4.0625,0,0,0,0,0
3.922,3.125,0,0,0,0,0
3.923,2.8125,0,0,0,0,0
3.924,3.4375,0,0,0,0,0
3.925,3.4375,0,0,0,0,0
3.926,3.875,0,0,0,0,0
3.927,3.75,0,0,0,0,0
3.928,3.625,0,0,0,0,0
3.929,3.75,0,0,0,0,0
3.93,3.4375,0,0,0,0,0
3.931,3.4375,0,0,0,0,0
3.932,3.5625,0,0,0,0,0
3.933,3.75,0,0,0,0,0
3.934,4.0625,0,0,0,0,0
3.935,4.0625,0,0,0,0,0
3.936,3,0,0,0,0,0
3.937,2.1875,0,0,0,0,0
3.938,2.625,0,0,0,0,0
3.939,2.8125,0,0,0,0,0
3.94,2.375,0,0,0,0,1
3.941,2.1875,0,0,0,0,0
3.942,3.25,0,0,0,0,0
3.943,3.4375,0,0,0,0,0
3.944,2.6875,0,0,0,0,0
3.945,2.8125,0,0,0,0,0
3.946,2.8125,0,0,0,0,0
3.947,2.8125,0,0,0,0,0
3.948,3.125,0,0,0,0,0
3.949,3.125,0,0,0,0,0
3.95,3.25,0,0,0,0,0
3.951,3.4375,0,0,0,0,0
3.952,3.75,0,0,0,0,0
3.953,3.75,0,0,0,0,0
3.954,3.3125,0,0,0,0,0
3.955,2.8125,0,0,0,0,0
3.956,3.25,0,0,0,0,0
3.957,2.8125,0,0,0,0,0
3.958,1.875,0,0,0,0,0
3.959,2.1875,0,0,0,0,0
3.96,2.0625,0,0,0,0,0
3.961,2.1875,0,0,0,0,0
3.962,2.8125,0,0,0,0,0
3.963,3.4375,0,0,0,0,0
3.964,3.4375,0,0,0,0,0
3.965,3.125,0,0,0,0,0
3.966,2.9375,0,0,0,0,0
3.967,2.8125,0,0,0,0,0
3.968,3.5625,0,0,0,0,0
3.969,4.6875,0,0,0,0,0
3.97,4.875,0,0,0,0,0
3.971,4.6875,0,0,0,0,0
3.972,4.375,0,0,0,0,0
3.973,3.75,0,0,0,0,0
3.974,5,0,0,0,0,0
3.975,5.625,0,0,0,0,0
3.976,5.3125,0,0,0,0,0
3.977,5.625,0,0,0,0,0
3.978,6.5625,0,0,0,0,0
3.979,5.9375,0,0,0,0,0
3.98,5.625,0,0,0,0,0
3.981,5,0,0,0,0,0
3.982,4.5625,0,0,0,0,0
3.983,3.75,0,0,0,0,0
3.984,3.4375,0,0,0,0,0
3.985,3.4375,0,0,0,0,0
3.986,3.4375,0,0,0,0,0
3.987,3.4375,0,0,0,0,0
3.988,4.375,0,0,0,0,0
3.989,4.0625,0,0,0,0,0
3.99,3.875,0,0,0,0,0
3.991,4.375,0,0,0,0,0
3.992,4.375,0,0,0,0,0
3.993,3.75,0,0,0,0,0
3.994,3.75,0,0,0,0,0
3.995,3.125,0,0,0,0,0
3.996,3.25,0,0,0,0,0
3.997,3.4375,0,0,0,0,0
3.998,3.3125,0,0,0,0,0
3.999,3.4375,0,0,0,0,0
4,4.1875,0,0,0,0,0
4.001,5,0,0,0,0,0
4.002,5,0,0,0,0,0
4.003,5,0,0,0,0,0
4.004,5.625,0,0,0,0,0
4.005,5.9375,0,0,0,0,0
4.006,5,0,0,0,0,0
4.007,3.75,0,0,0,0,0
4.008,3.75,0,0,0,0,0
4.009,4.0625,0,0,0,0,0
4.01,4.1875,0,0,0,0,0
4.011,4.6875,0,0,0,0,0
4.012,5.3125,0,0,0,0,0
4.013,5.9375,0,0,0,0,0
4.014,6.6875,0,0,0,0,0
4.015,7.1875,0,0,0,0,0
4.016,6.5625,0,0,0,0,0
4.017,6.5625,0,0,0,0,0
4.018,6.4375,0,0,0,0,0
4.019,5.9375,0,0,0,0,0
4.02,5.625,0,0,0,0,0
4.021,5,0,0,0,0,0
4.022,5,0,0,0,0,0
4.023,5,0,0,0,0,0
4.024,4.875,0,0,0,0,0
4.025,4.6875,0,0,0,0,0
4.026,4.375,0,0,0,0,0
4.027,4.6875,0,0,0,0,0
4.028,3.75,0,0,0,0,0
4.029,3.75,0,0,0,0,0
4.03,3.125,0,0,0,0,0
4.031,3.125,0,0,0,0,0
4.032,3.875,0,0,0,0,0
4.033,4.0625,0,0,0,0,0
4.034,4.8125,0,0,0,0,0
4.035,5.9375,0,0,0,0,0
4.036,5.9375,0,0,0,0,0
4.037,5.3125,0,0,0,0,0
4.038,4.6875,0,0,0,0,0
4.039,3.75,0,0,0,0,0
4.04,3.9375,0,0,0,0,0
4.041,3.4375,0,0,0,0,0
4.042,3.25,0,0,0,0,0
4.043,3.4375,0,0,0,0,0
4.044,3.875,0,0,0,0,0
4.045,3.75,0,0,0,0,0
4.046,4.375,0,0,0,0,0
4.047,5,0,0,0,0,0
4.048,6.375,0,0,0,0,0
4.049,7.5,0,0,0,0,0
4.05,7.0625,0,0,0,0,0
4.051,6.5625,0,0,0,0,0
4.052,5.8125,0,0,0,0,0
4.053,5,0,0,0,0,0
4.054,5,0,0,0,0,0
4.055,4.6875,0,0,0,0,0
4.056,5.4375,0,0,0,0,0
4.057,5,0,0,0,0,0
4.058,5.125,0,0,0,0,0
4.059,5.3125,0,0,0,0,0
4.06,4.875,0,0,0,0,0
4.061,4.6875,0,0,0,0,0
4.062,4.0625,0,0,0,0,0
4.063,3.75,0,0,0,0,0
4.064,4.0625,0,0,0,0,0
4.065,3.75,0,0,0,0,0
4.066,3,0,0,0,0,0
4.067,3.4375,0,0,0,0,0
4.068,3.875,0,0,0,0,0
4.069,3.75,0,0,0,0,0
4.07,3.4375,0,0,0,0,0
4.071,3.4375,0,0,0,0,0
4.072,4.8125,0,0,0,0,0
4.073,5.3125,0,0,0,0,0
4.074,5.9375,0,0,0,0,0
4.075,5.625,0,0,0,0,0
4.076,6.75,0,0,0,0,0
4.077,5.9375,0,0,0,0,0
4.078,5,0,0,0,0,0
4.079,3.75,0,0,0,0,0
4.08,3.125,0,0,0,0,0
4.081,3.125,0,0,0,0,0
4.082,3.125,0,0,0,0,0
4.083,3.125,0,0,0,0,0
4.084,3.5625,0,0,0,0,0
4.085,3.75,0,0,0,0,0
4.086,3.125,0,0,0,0,0
4.087,3.125,0,0,0,0,0
4.088,2.8125,0,0,0,0,0
4.089,3.125,0,0,0,0,0
4.09,3.4375,0,0,0,0,0
4.091,4.0625,0,0,0,0,0
4.092,4.1875,0,0,0,0,0
4.093,4.375,0,0,0,0,0
4.094,4.8125,0,0,0,0,0
4.095,5.3125,0,0,0,0,0
4.096,5.75,0,0,0,0,0
4.097,6.25,0,0,0,0,0
4.098,5.75,0,0,0,0,0
4.099,5.9375,0,0,0,0,0
4.1,5.1875,0,0,0,0,0
4.101,5.3125,0,0,0,0,0
4.102,5.4375,0,0,0,0,0
4.103,5.3125,0,0,0,0,0
4.104,6.375,0,0,0,0,0
4.105,7.1875,0,0,0,0,0
4.106,8.4375,0,0,0,0,0
4.107,7.8125,0,0,0,0,0
4.108,7.1875,0,0,0,0,0
4.109,6.875,0,0,0,0,0
4.11,7.1875,0,0,0,0,0
4.111,6.25,0,0,0,0,0
4.112,5.625,0,0,0,0,0
4.113,5.3125,0,0,0,0,0
4.114,5.75,0,0,0,0,0
4.115,6.5625,0,0,0,0,0
4.116,6.4375,0,0,0,0,0
4.117,6.25,0,0,0,0,0
4.118,6.875,0,0,0,0,0
4.119,6.875,0,0,0,0,0
4.12,7.375,0,0,0,0,0
4.121,7.1875,0,0,0,0,0
4.122,7.3125,0,0,0,0,0
4.123,7.1875,0,0,0,0,0
4.124,7.8125,0,0,0,0,0
4.125,9.375,0,0,0,0,0
4.126,9.375,0,0,0,0,0
4.127,9.6875,0,0,0,0,0
4.128,10,0,0,0,0,0
4.129,10.625,0,0,0,0,0
4.13,10.313,0,0,0,0,0
4.131,10,0,0,0,0,0
4.132,9.5625,0,0,0,0,0
4.133,9.0625,0,0,0,0,0
4.134,8.4375,0,0,0,0,0
4.135,9.0625,0,0,0,0,0
4.136,9.0625,0,0,0,0,0
4.137,9.6875,0,0,0,0,0
4.138,10.125,0,0,0,0,0
4.139,10,0,0,0,0,0
4.14,9.25,0,0,0,0,0
4.141,9.0625,0,0,0,0,0
4.142,9.8125,0,0,0,0,0
4.143,10,0,0,0,0,0
4.144,9.6875,0,0,0,0,0
4.145,10,0,0,0,0,0
4.146,9.6875,0,0,0,0,0
4.147,10,0,0,0,0,0
4.148,9.6875,0,0,0,0,0
4.149,9.6875,0,0,0,0,0
4.15,10,0,0,0,0,0
4.151,10.313,0,0,0,0,0
4.152,10,0,0,0,0,0
4.153,9.375,0,0,0,0,0
4.154,8.4375,0,0,0,0,0
4.155,6.5625,0,0,0,0,0
4.156,6.875,0,0,0,0,0
4.157,7.1875,0,0,0,0,0
4.158,7.3125,0,0,0,0,0
4.159,6.875,0,0,0,0,0
4.16,6.875,0,0,0,0,0
4.161,6.25,0,0,0,0,0
4.162,6.125,0,0,0,0,0
4.163,5.9375,0,0,0,0,0
4.164,6.0625,0,0,0,0,0
4.165,6.875,0,0,0,0,0
4.166,6.6875,0,0,0,0,0
4.167,6.5625,0,0,0,0,0
4.168,6.5625,0,0,0,0,0
4.169,6.875,0,0,0,0,0
4.17,7.8125,0,0,0,0,0
4.171,8.125,0,0,0,0,0
4.172,8.125,0,0,0,0,0
4.173,7.1875,0,0,0,0,0
4.174,7.0625,0,0,0,0,0
4.175,6.5625,0,0,0,0,0
4.176,6.6875,0,0,0,0,0
4.177,6.5625,0,0,0,0,0
4.178,7.5,0,0,0,0,0
4.179,7.5,0,0,0,0,0
4.18,7.1875,0,0,0,0,0
4.181,7.1875,0,0,0,0,0
4.182,7.3125,0,0,0,0,0
4.183,8.125,0,0,0,0,0
4.184,8,0,0,0,0,0
4.185,7.5,0,0,0,0,0
4.186,6.25,0,0,0,0,0
4.187,5.3125,0,0,0,0,0
4.188,4.875,0,0,0,0,0
4.189,4.6875,0,0,0,0,0
4.19,4.5,0,0,0,0,0
4.191,4.6875,0,0,0,0,0
4.192,3.9375,0,0,0,0,0
4.193,2.8125,0,0,0,0,0
4.194,3,0,0,0,0,0
4.195,3.125,0,0,0,0,0
4.196,2.8125,0,0,0,0,0
4.197,2.5,0,0,0,0,0
4.198,2.9375,0,0,0,0,0
4.199,2.8125,0,0,0,0,0
4.2,2.6875,0,0,0,0,0
4.201,2.5,0,0,0,0,0
4.202,2.5,0,0,0,0,0
4.203,1.875,0,0,0,0,0
4.204,1.25,0,0,0,0,0
4.205,1.5625,0,0,0,0,0
4.206,2.3125,0,0,0,0,0
4.207,3.75,0,0,0,0,0
4.208,3.625,0,0,0,0,0
4.209,3.4375,0,0,0,0,0
4.21,3.3125,0,0,0,0,0
4.211,2.8125,0,0,0,0,0
4.212,2.5,0,0,0,0,0
4.213,2.1875,0,0,0,0,0
4.214,2.0625,0,0,0,0,0
4.215,1.25,0,0,0,0,0
4.216,2.1875,0,0,0,0,0
4.217,2.8125,0,0,0,0,0
4.218,3,0,0,0,0,0
4.219,3.125,0,0,0,0,0
4.22,3,0,0,0,0,0
4.221,2.8125,0,0,0,0,0
4.222,3,0,0,0,0,0
4.223,2.1875,0,0,0,0,0
4.224,2.3125,0,0,0,0,0
4.225,2.5,0,0,0,0,0
4.226,2.5,0,0,0,0,0
4.227,3.75,0,0,0,0,0
4.228,3.75,0,0,0,0,0
4.229,4.0625,0,0,0,0,0
4.23,3.9375,0,0,0,0,0
4.231,3.75,0,0,0,0,0
4.232,3.75,0,0,0,0,0
4.233,4.0625,0,0,0,0,0
4.234,3.5625,0,0,0,0,0
4.235,3.75,0,0,0,0,0
4.236,3.3125,0,0,0,0,0
4.237,3.125,0,0,0,0,0
4.238,3.875,0,0,0,0,0
4.239,4.6875,0,0,0,0,0
4.24,4.5625,0,0,0,0,0
4.241,4.0625,0,0,0,0,0
4.242,3.9375,0,0,0,0,0
4.243,4.0625,0,0,0,0,0
4.244,3.125,0,0,0,0,0
4.245,2.5,0,0,0,0,0
4.246,2.625,0,0,0,0,0
4.247,2.1875,0,0,0,0,0
4.248,1.875,0,0,0,0,0
4.249,1.5625,0,0,0,0,0
4.25,0.9375,0,0,0,0,0
4.251,0.625,0,0,0,0,0
4.252,-0.3125,0,0,0,0,0
4.253,-0.3125,1,0,0,0,0
4.254,0,0,0,0,0,0
4.255,-0.9375,0,0,0,0,0
4.256,-0.9375,0,0,0,0,0
4.257,-1.25,0,0,0,0,0
4.258,-0.5,0,0,0,0,0
4.259,-0.625,0,0,0,0,0
4.26,0.625,0,0,0,0,0
4.261,2.5,0,0,0,0,0
4.262,3.875,0,0,0,0,0
4.263,5.3125,0,0,0,0,0
4.264,4.0625,0,0,0,0,0
4.265,4.6875,0,0,0,0,0
4.266,3.625,0,0,0,0,0
4.267,2.8125,0,0,0,0,0
4.268,2.5,0,0,0,0,0
4.269,2.5,0,0,0,0,0
4.27,3.4375,0,0,0,0,0
4.271,3.75,0,0,0,0,0
4.272,4.5625,0,0,0,0,0
4.273,4.375,0,0,0,0,0
4.274,4.375,0,0,0,0,0
4.275,3.75,0,0,0,0,0
4.276,3.875,0,0,0,0,0
4.277,4.0625,0,0,0,0,0
4.278,3.75,0,0,0,0,0
4.279,3.125,0,0,0,0,0
4.28,3.4375,0,0,0,0,0
4.281,3.75,0,0,0,0,0
4.282,4.1875,0,0,0,0,0
4.283,4.6875,0,0,0,0,0
4.284,3.75,0,0,0,0,0
4.285,4.375,0,0,0,0,0
4.286,5.125,0,0,0,0,0
4.287,6.25,0,0,0,0,0
4.288,7.1875,0,0,0,0,0
4.289,8.75,0,0,0,0,0
4.29,10,0,0,0,0,0
4.291,10.625,0,0,0,0,0
4.292,11.563,0,0,0,0,0
4.293,12.813,0,0,0,0,0
4.294,14.813,0,0,0,0,0
4.295,16.25,0,0,0,0,0
4.296,17.938,0,0,0,0,0
4.297,19.688,0,0,0,0,0
4.298,20.938,0,0,0,0,0
4.299,22.5,0,0,0,0,0
4.3,25.313,0,0,0,0,0
4.301,28.438,0,0,0,0,0
4.302,30.938,0,0,0,0,0
4.303,33.75,0,0,0,0,0
4.304,35.813,0,0,0,0,0
4.305,37.813,0,0,0,0,0
4.306,39.063,0,0,0,0,0
4.307,40.313,0,0,0,0,0
4.308,41.75,0,0,0,0,0
4.309,43.125,0,0,0,0,0
4.31,44.688,0,0,0,0,0
4.311,45.938,0,0,0,0,0
4.312,46.75,0,0,0,0,0
4.313,47.813,0,0,0,0,0
4.314,47.813,0,0,0,0,0
4.315,46.563,0,0,0,0,0
4.316,44.563,0,0,0,0,0
4.317,41.875,0,0,0,0,0
4.318,38.625,0,1,0,0,0
4.319,34.375,0,0,0,0,0
4.32,31.438,0,0,0,0,0
4.321,27.813,0,0,0,0,0
4.322,24.688,0,0,0,0,0
4.323,20,0,0,0,0,0
4.324,14.375,0,0,0,0,0
4.325,9.6875,0,0,0,0,0
4.326,5.5,0,0,0,0,0
4.327,1.25,0,0,0,0,0
4.328,-3.4375,0,0,0,0,0
4.329,-7.5,0,0,0,0,0
4.33,-9.875,0,0,0,0,0
4.331,-13.125,0,0,0,0,0
4.332,-15,0,0,0,0,0
4.333,-16.563,0,0,0,0,0
4.334,-18.563,0,0,0,0,0
4.335,-21.25,0,0,0,0,0
4.336,-24.188,0,0,0,0,0
4.337,-26.875,0,0,0,0,0
4.338,-28.438,0,0,0,0,0
4.339,-29.063,0,0,0,0,0
4.34,-29.563,0,0,0,0,0
4.341,-29.375,0,0,0,0,0
4.342,-29.375,0,0,0,0,0
4.343,-28.75,0,0,0,0,0
4.344,-26.875,0,0,0,0,0
4.345,-25.938,0,0,0,0,0
4.346,-24.063,0,0,0,0,0
4.347,-22.188,0,0,0,0,0
4.348,-20.188,0,0,0,0,0
4.349,-19.063,0,0,0,0,0
4.35,-18.438,0,0,0,0,0
4.351,-17.5,0,0,0,0,0
4.352,-17.5,0,0,0,0,0
4.353,-17.188,0,0,0,0,0
4.354,-17,0,0,0,0,0
4.355,-17.188,0,0,0,0,0
4.356,-16.75,0,0,0,0,0
4.357,-15.938,0,0,0,0,0
4.358,-15.75,0,0,0,0,0
4.359,-16.25,0,0,0,0,0
4.36,-16.25,0,0,0,0,0
4.361,-16.25,0,0,0,0,0
4.362,-16.25,0,0,0,0,0
4.363,-15.625,0,0,0,0,0
4.364,-14.25,0,0,0,0,0
4.365,-13.438,0,0,0,0,0
4.366,-12.5,0,0,0,0,0
4.367,-11.875,0,0,0,0,0
4.368,-10.625,0,0,0,0,0
4.369,-10,0,0,0,0,0
4.37,-10,0,0,0,0,0
4.371,-10.313,0,0,0,0,0
4.372,-10.625,0,0,0,0,0
4.373,-11.25,0,0,0,0,0
4.374,-10.938,0,0,0,0,0
4.375,-11.25,0,0,0,0,0
4.376,-11.438,0,0,0,0,0
4.377,-11.25,0,0,0,0,0
4.378,-10.75,0,0,0,0,0
4.379,-10.313,0,0,0,0,0
4.38,-10.438,0,0,0,0,0
4.381,-10,0,0,0,0,0
4.382,-9.875,0,0,0,0,0
4.383,-10.313,0,0,0,0,0
4.384,-10.438,0,0,0,0,0
4.385,-11.25,0,0,0,0,0
4.386,-11.563,0,0,0,0,0
4.387,-12.5,0,0,0,0,0
4.388,-12.688,0,0,0,0,0
4.389,-12.5,0,0,0,0,0
4.39,-12.063,0,0,0,0,0
4.391,-11.563,0,0,0,0,0
4.392,-11.75,0,0,0,0,0
4.393,-11.563,0,0,0,0,0
4.394,-12,0,0,0,0,0
4.395,-12.5,0,0,0,0,0
4.396,-12.313,0,0,0,0,0
4.397,-12.5,0,0,0,0,0
4.398,-12.5,0,0,0,0,0
4.399,-12.188,0,0,0,0,0
4.4,-12.063,0,0,0,0,0
4.401,-11.563,0,0,0,0,0
4.402,-12.188,0,0,0,0,0
4.403,-13.125,0,0,0,0,0
4.404,-13.25,0,0,0,0,0
4.405,-13.438,0,0,0,0,0
4.406,-12.813,0,0,0,0,0
4.407,-12.5,0,0,0,0,0
4.408,-10.938,0,0,0,0,0
4.409,-9.6875,0,0,0,0,0
4.41,-9.1875,0,0,0,0,0
4.411,-9.375,0,0,0,0,0
4.412,-9.0625,0,0,0,0,0
4.413,-8.75,0,0,0,0,0
4.414,-8.125,0,0,0,0,0
4.415,-6.25,0,0,0,0,0
4.416,-5.1875,0,0,0,0,0
4.417,-4.0625,0,0,0,0,0
4.418,-3.125,0,0,0,0,0
4.419,-2.1875,0,0,0,0,0
4.42,-0.9375,0,0,0,0,0
4.421,0.3125,0,0,0,0,0
4.422,-0.4375,0,0,0,0,0
4.423,-1.25,0,0,0,0,0
4.424,-0.9375,0,0,0,0,0
4.425,-0.9375,0,0,0,0,0
4.426,-0.1875,0,0,0,0,0
4.427,0.3125,0,0,0,0,0
4.428,-0.125,0,0,0,0,0
4.429,0,0,0,0,0,0
4.43,0.625,0,0,0,0,0
4.431,0.625,0,0,0,0,0
4.432,1.375,0,0,0,0,0
4.433,2.5,0,0,0,0,0
4.434,2.375,0,0,0,0,0
4.435,2.5,0,0,0,0,0
4.436,1.875,0,0,0,0,0
4.437,1.875,0,0,0,0,0
4.438,1.5625,0,0,0,0,0
4.439,1.25,0,0,0,0,0
4.44,2.5,0,0,0,0,0
4.441,3.125,0,0,0,0,0
4.442,4.0625,0,0,0,0,0
4.443,4.375,0,0,0,0,0
4.444,4.6875,0,0,0,0,0
4.445,4.375,0,0,0,0,0
4.446,3.75,0,0,0,0,0
4.447,3.125,0,0,0,0,0
4.448,3.125,0,0,0,0,0
4.449,3.75,0,0,0,0,0
4.45,5.125,0,0,0,0,0
4.451,5.625,0,0,0,0,0
4.452,5.625,0,0,1,0,0
4.453,6.25,0,0,0,0,0
4.454,5.5,0,0,0,0,0
4.455,5.3125,0,0,0,0,0
4.456,5.5,0,0,0,0,0
4.457,5.9375,0,0,0,0,0
4.458,6.25,0,0,0,0,0
4.459,6.25,0,0,0,0,0
4.46,6.125,0,0,0,0,0
4.461,6.25,0,0,0,0,0
4.462,5.5,0,0,0,0,0
4.463,4.6875,0,0,0,0,0
4.464,4.875,0,0,0,0,0
4.465,4.375,0,0,0,0,0
4.466,5.1875,0,0,0,0,0
4.467,4.375,0,0,0,0,0
4.468,3.4375,0,0,0,0,0
4.469,2.5,0,0,0,0,0
4.47,2.5,0,0,0,0,0
4.471,2.1875,0,0,0,0,0
4.472,3.5625,0,0,0,0,0
4.473,5,0,0,0,0,0
4.474,5.5,0,0,0,0,0
4.475,5,0,0,0,0,0
4.476,5,0,0,0,0,0
4.477,5.3125,0,0,0,0,0
4.478,5.625,0,0,0,0,0
4.479,5.9375,0,0,0,0,0
4.48,6.25,0,0,0,0,0
4.481,6.875,0,0,0,0,0
4.482,6.5625,0,0,0,0,0
4.483,6.5625,0,0,0,0,0
4.484,6.4375,0,0,0,0,0
4.485,6.25,0,0,0,0,0
4.486,5.8125,0,0,0,0,0
4.487,5,0,0,0,0,0
4.488,4.8125,0,0,0,0,0
4.489,5,0,0,0,0,0
4.49,4.5625,0,0,0,0,0
4.491,4.6875,0,0,0,0,0
4.492,4.6875,0,0,0,0,0
4.493,4.375,0,0,0,0,0
4.494,5.3125,0,0,0,0,0
4.495,5.625,0,0,0,0,0
4.496,5.9375,0,0,0,0,0
4.497,6.5625,0,0,0,0,0
4.498,6.5625,0,0,0,0,0
4.499,6.875,0,0,0,0,0
4.5,5.9375,0,0,0,0,0
4.501,5.9375,0,0,0,0,0
4.502,5.8125,0,0,0,0,0
4.503,5.9375,0,0,0,0,0
4.504,5.9375,0,0,0,0,0
4.505,5.625,0,0,0,0,0
4.506,5.9375,0,0,0,0,0
4.507,5.9375,0,0,0,0,0
4.508,6.375,0,0,0,0,0
4.509,6.5625,0,0,0,0,0
4.51,5.9375,0,0,0,0,0
4.511,5.625,0,0,0,0,0
4.512,5.1875,0,0,0,0,0
4.513,5,0,0,0,0,0
4.514,5.3125,0,0,0,0,0
4.515,5.9375,0,0,0,0,0
4.516,5.9375,0,0,0,0,0
4.517,6.25,0,0,0,0,0
4.518,6.25,0,0,0,0,0
4.519,6.25,0,0,0,0,0
4.52,6.25,0,0,0,0,0
4.521,6.25,0,0,0,0,0
4.522,6.5625,0,0,0,0,0
4.523,6.25,0,0,0,0,0
4.524,6.125,0,0,0,0,0
4.525,5.625,0,0,0,0,0
4.526,5.3125,0,0,0,0,0
4.527,5,0,0,0,0,0
4.528,5.625,0,0,0,0,0
4.529,5.625,0,0,0,0,0
4.53,6.0625,0,0,0,0,0
4.531,5.625,0,0,0,0,0
4.532,5.625,0,0,0,0,0
4.533,5.625,0,0,0,0,0
4.534,5.8125,0,0,0,0,0
4.535,5.9375,0,0,0,0,0
4.536,6.6875,0,0,0,0,0
4.537,7.1875,0,0,0,0,0
4.538,8.125,0,0,0,0,0
4.539,8.4375,0,0,0,0,0
4.54,8.4375,0,0,0,0,0
4.541,8.75,0,0,0,0,0
4.542,8.75,0,0,0,0,0
4.543,9.0625,0,0,0,0,0
4.544,8.125,0,0,0,0,0
4.545,7.1875,0,0,0,0,0
4.546,7,0,0,0,0,0
4.547,7.1875,0,0,0,0,0
4.548,6.5625,0,0,0,0,0
4.549,5.9375,0,0,0,0,0
4.55,5.75,0,0,0,0,0
4.551,5.9375,0,0,0,0,0
4.552,6.0625,0,0,0,0,0
4.553,7.1875,0,0,0,0,0
4.554,7.625,0,0,0,0,0
4.555,8.4375,0,0,0,0,0
4.556,8.4375,0,0,0,0,0
4.557,9.0625,0,0,0,0,0
4.558,8.3125,0,0,0,0,0
4.559,7.8125,0,0,0,0,0
4.56,7.8125,0,0,0,0,0
4.561,8.125,0,0,0,0,0
4.562,8.75,0,0,0,0,0
4.563,8.75,0,0,0,0,0
4.564,8.9375,0,0,0,0,0
4.565,9.0625,0,0,0,0,0
4.566,8.75,0,0,0,0,0
4.567,8.75,0,0,0,0,0
4.568,8,0,0,0,0,0
4.569,8.125,0,0,0,0,0
4.57,7.8125,0,0,0,0,0
4.571,7.5,0,0,0,0,0
4.572,7.5,0,0,0,0,0
4.573,7.8125,0,0,0,0,0
4.574,7.375,0,0,0,0,0
4.575,7.5,0,0,0,0,0
4.576,8.4375,0,0,0,0,0
4.577,9.6875,0,0,0,0,0
4.578,10,0,0,0,0,0
4.579,10,0,0,0,0,0
4.58,9.5625,0,0,0,0,0
4.581,8.75,0,0,0,0,0
4.582,8.875,0,0,0,0,0
4.583,9.375,0,0,0,0,0
4.584,9.375,0,0,0,0,0
4.585,9.6875,0,0,0,0,0
4.586,9.8125,0,0,0,0,0
4.587,10,0,0,0,0,0
4.588,9.6875,0,0,0,0,0
4.589,9.6875,0,0,0,0,0
4.59,10.125,0,0,0,0,0
4.591,10.625,0,0,0,0,0
4.592,11.063,0,0,0,0,0
4.593,10.938,0,0,0,0,0
4.594,10.438,0,0,0,0,0
4.595,10.625,0,0,0,0,0
4.596,10,0,0,0,0,0
4.597,10.313,0,0,0,0,0
4.598,10.188,0,0,0,0,0
4.599,10.313,0,0,0,0,0
4.6,10.625,0,0,0,0,0
4.601,10.313,0,0,0,0,0
4.602,10.313,0,0,0,0,0
4.603,10,0,0,0,0,0
4.604,9.875,0,0,0,0,0
4.605,9.0625,0,0,0,0,0
4.606,8.75,0,0,0,0,0
4.607,8.75,0,0,0,0,0
4.608,10.625,0,0,0,0,0
4.609,12.188,0,0,0,0,0
4.61,12.938,0,0,0,0,0
4.611,14.063,0,0,0,0,0
4.612,13.75,0,0,0,0,0
4.613,13.438,0,0,0,0,0
4.614,13.313,0,0,0,0,0
4.615,13.125,0,0,0,0,0
4.616,13.25,0,0,0,1,0
4.617,13.438,0,0,0,0,0
4.618,13.125,0,0,0,0,0
4.619,12.813,0,0,0,0,0
4.62,13,0,0,0,0,0
4.621,12.813,0,0,0,0,0
4.622,12.5,0,0,0,0,0
4.623,12.188,0,0,0,0,0
4.624,12.938,0,0,0,0,0
4.625,12.5,0,0,0,0,0
4.626,13.563,0,0,0,0,0
4.627,13.438,0,0,0,0,0
4.628,12.688,0,0,0,0,0
4.629,12.5,0,0,0,0,0
4.63,12.813,0,0,0,0,0
4.631,12.5,0,0,0,0,0
4.632,12.188,0,0,0,0,0
4.633,12.5,0,0,0,0,0
4.634,12.313,0,0,0,0,0
4.635,12.5,0,0,0,0,0
4.636,12.625,0,0,0,0,0
4.637,12.5,0,0,0,0,0
4.638,12.5,0,0,0,0,0
4.639,12.5,0,0,0,0,0
4.64,12.188,0,0,0,0,0
4.641,12.188,0,0,0,0,0
4.642,12.375,0,0,0,0,0
4.643,11.875,0,0,0,0,0
4.644,11.688,0,0,0,0,0
4.645,12.5,0,0,0,0,0
4.646,12.5,0,0,0,0,0
4.647,12.188,0,0,0,0,0
4.648,11.125,0,0,0,0,0
4.649,10.313,0,0,0,0,0
4.65,9.0625,0,0,0,0,0
4.651,9.0625,0,0,0,0,0
4.652,8.875,0,0,0,0,0
4.653,8.75,0,0,0,0,0
4.654,8.875,0,0,0,0,0
4.655,9.375,0,0,0,0,0
4.656,10.938,0,0,0,0,0
4.657,13.125,0,0,0,0,0
4.658,12.5,0,0,0,0,0
4.659,12.188,0,0,0,0,0
4.66,10.813,0,0,0,0,0
4.661,9.375,0,0,0,0,0
4.662,9.375,0,0,0,0,0
4.663,10,0,0,0,0,0
4.664,9.5,0,0,0,0,0
4.665,9.375,0,0,0,0,0
4.666,9.0625,0,0,0,0,0
4.667,9.6875,0,0,0,0,0
4.668,10.625,0,0,0,0,0
4.669,10.938,0,0,0,0,0
4.67,11.063,0,0,0,0,0
4.671,10.938,0,0,0,0,0
4.672,9.5625,0,0,0,0,0
4.673,8.75,0,0,0,0,0
4.674,8.4375,0,0,0,0,0
4.675,7.8125,0,0,0,0,0
4.676,7.1875,0,0,0,0,0
4.677,6.5625,0,0,0,0,0
4.678,6.6875,0,0,0,0,0
4.679,6.25,0,0,0,0,0
4.68,7.5,0,0,0,0,0
4.681,8.125,0,0,0,0,0
4.682,7.6875,0,0,0,0,0
4.683,7.8125,0,0,0,0,0
4.684,7.8125,0,0,0,0,0
4.685,7.8125,0,0,0,0,0
4.686,6.75,0,0,0,0,0
4.687,5.9375,0,0,0,0,0
4.688,5.1875,0,0,0,0,0
4.689,5.625,0,0,0,0,0
4.69,5.625,0,0,0,0,0
4.691,5.625,0,0,0,0,0
4.692,6.0625,0,0,0,0,0
4.693,5.9375,0,0,0,0,0
4.694,6.25,0,0,0,0,0
4.695,6.5625,0,0,0,0,0
4.696,4.875,0,0,0,0,0
4.697,3.75,0,0,0,0,0
4.698,3.125,0,0,0,0,0
4.699,3.4375,0,0,0,0,0
4.7,3.4375,0,0,0,0,0
4.701,3.4375,0,0,0,0,0
4.702,4.0625,0,0,0,0,0
4.703,4.375,0,0,0,0,0
4.704,4.8125,0,0,0,0,0
4.705,4.6875,0,0,0,0,0
4.706,5,0,0,0,0,1
4.707,5.625,0,0,0,0,0
4.708,5.5,0,0,0,0,0
4.709,5.625,0,0,0,0,0
4.71,5,0,0,0,0,0
4.711,5,0,0,0,0,0
4.712,5.4375,0,0,0,0,0
4.713,5.3125,0,0,0,0,0
4.714,5.5,0,0,0,0,0
4.715,5,0,0,0,0,0
4.716,4.6875,0,0,0,0,0
4.717,4.6875,0,0,0,0,0
4.718,4.0625,0,0,0,0,0
4.719,3.75,0,0,0,0,0
4.72,3.3125,0,0,0,0,0
4.721,2.8125,0,0,0,0,0
4.722,3.25,0,0,0,0,0
4.723,3.4375,0,0,0,0,0
4.724,3.75,0,0,0,0,0
4.725,4.375,0,0,0,0,0
4.726,4.375,0,0,0,0,0
4.727,4.0625,0,0,0,0,0
4.728,3.625,0,0,0,0,0
4.729,3.4375,0,0,0,0,0
4.73,3.9375,0,0,0,0,0
4.731,3.4375,0,0,0,0,0
4.732,3.75,0,0,0,0,0
4.733,5,0,0,0,0,0
4.734,5.4375,0,0,0,0,0
4.735,5.9375,0,0,0,0,0
4.736,6.0625,0,0,0,0,0
4.737,5.9375,0,0,0,0,0
4.738,5.5,0,0,0,0,0
4.739,5,0,0,0,0,0
4.74,4.25,0,0,0,0,0
4.741,3.125,0,0,0,0,0
4.742,3.125,0,0,0,0,0
4.743,3.125,0,0,0,0,0
4.744,4.8125,0,0,0,0,0
4.745,5.625,0,0,0,0,0
4.746,5.125,0,0,0,0,0
4.747,5.9375,0,0,0,0,0
4.748,5.1875,0,0,0,0,0
4.749,4.6875,0,0,0,0,0
4.75,4.25,0,0,0,0,0
4.751,3.75,0,0,0,0,0
4.752,4.0625,0,0,0,0,0
4.753,4.0625,0,0,0,0,0
4.754,3.875,0,0,0,0,0
4.755,3.75,0,0,0,0,0
4.756,3.625,0,0,0,0,0
4.757,3.75,0,0,0,0,0
4.758,4.375,0,0,0,0,0
4.759,4.6875,0,0,0,0,0
4.76,5.125,0,0,0,0,0
4.761,5.3125,0,0,0,0,0
4.762,5.8125,0,0,0,0,0
4.763,5.625,0,0,0,0,0
4.764,4.6875,0,0,0,0,0
4.765,4.375,0,0,0,0,0
4.766,5.5,0,0,0,0,0
4.767,5,0,0,0,0,0
4.768,5.1875,0,0,0,0,0
4.769,5,0,0,0,0,0
4.77,4.5625,0,0,0,0,0
4.771,3.75,0,0,0,0,0
4.772,3.875,0,0,0,0,0
4.773,4.375,0,0,0,0,0
4.774,4.6875,0,0,0,0,0
4.775,5,0,0,0,0,0
4.776,6.0625,0,0,0,0,0
4.777,5.9375,0,0,0,0,0
4.778,5.625,0,0,0,0,0
4.779,5.9375,0,0,0,0,0
4.78,5.1875,0,0,0,0,0
4.781,3.75,0,0,0,0,0
4.782,4.375,0,0,0,0,0
4.783,4.375,0,0,0,0,0
4.784,4.5,0,0,0,0,0
4.785,4.6875,0,0,0,0,0
4.786,4.5625,0,0,0,0,0
4.787,4.6875,0,0,0,0,0
4.788,4.875,0,0,0,0,0
4.789,5,0,0,0,0,0
4.79,5.3125,0,0,0,0,0
4.791,5.625,0,0,0,0,0
4.792,5.75,0,0,0,0,0
4.793,5.625,0,0,0,0,0
4.794,5.3125,0,0,0,0,0
4.795,4.6875,0,0,0,0,0
4.796,4.5625,0,0,0,0,0
4.797,4.6875,0,0,0,0,0
4.798,4.5,0,0,0,0,0
4.799,4.6875,0,0,0,0,0
4.8,4.5625,0,0,0,0,0
4.801,4.375,0,0,0,0,0
4.802,4.875,0,0,0,0,0
4.803,5,0,0,0,0,0
4.804,4.8125,0,0,0,0,0
4.805,5.3125,0,0,0,0,0
4.806,5.3125,0,0,0,0,0
4.807,5,0,0,0,0,0
4.808,5.125,0,0,0,0,0
4.809,5,0,0,0,0,0
4.81,5,0,0,0,0,0
4.811,5,0,0,0,0,0
4.812,5,0,0,0,0,0
4.813,5,0,0,0,0,0
4.814,5.125,0,0,0,0,0
4.815,5.9375,0,0,0,0,0
4.816,5.4375,0,0,0,0,0
4.817,5.9375,0,0,0,0,0
4.818,5.1875,0,0,0,0,0
4.819,5,0,0,0,0,0
4.82,5.125,0,0,0,0,0
4.821,4.6875,0,0,0,0,0
4.822,3.9375,0,0,0,0,0
4.823,3.4375,0,0,0,0,0
4.824,3.9375,0,0,0,0,0
4.825,3.75,0,0,0,0,0
4.826,5,0,0,0,0,0
4.827,5.9375,0,0,0,0,0
4.828,6.6875,0,0,0,0,0
4.829,6.875,0,0,0,0,0
4.83,6.5625,0,0,0,0,0
4.831,6.5625,0,0,0,0,0
4.832,6.6875,0,0,0,0,0
4.833,6.25,0,0,0,0,0
4.834,6.5625,0,0,0,0,0
4.835,6.875,0,0,0,0,0
4.836,7.625,0,0,0,0,0
4.837,8.125,0,0,0,0,0
4.838,8.125,0,0,0,0,0
4.839,8.125,0,0,0,0,0
4.84,6.4375,0,0,0,0,0
4.841,4.6875,0,0,0,0,0
4.842,4.25,0,0,0,0,0
4.843,3.4375,0,0,0,0,0
4.844,4.0625,0,0,0,0,0
4.845,3.4375,0,0,0,0,0
4.846,3.125,0,0,0,0,0
4.847,2.8125,0,0,0,0,0
4.848,3.5625,0,0,0,0,0
4.849,4.6875,0,0,0,0,0
4.85,4.0625,0,0,0,0,0
4.851,3.75,0,0,0,0,0
4.852,4.6875,0,0,0,0,0
4.853,5,0,0,0,0,0
4.854,4.25,0,0,0,0,0
4.855,4.6875,0,0,0,0,0
4.856,5.3125,0,0,0,0,0
4.857,5.3125,0,0,0,0,0
4.858,5.625,0,0,0,0,0
4.859,6.25,0,0,0,0,0
4.86,6.25,0,0,0,0,0
4.861,5.9375,0,0,0,0,0
4.862,4.875,0,0,0,0,0
4.863,4.6875,0,0,0,0,0
4.864,4.25,0,0,0,0,0
4.865,5.3125,0,0,0,0,0
4.866,5.4375,0,0,0,0,0
4.867,5.9375,0,0,0,0,0
4.868,5.4375,0,0,0,0,0
4.869,5,0,0,0,0,0
4.87,4.375,0,0,0,0,0
4.871,3.75,0,0,0,0,0
4.872,3.4375,0,0,0,0,0
4.873,3.125,0,0,0,0,0
4.874,2.9375,0,0,0,0,0
4.875,2.8125,0,0,0,0,0
4.876,4.8125,0,0,0,0,0
4.877,6.875,0,0,0,0,0
4.878,7.5,0,0,0,0,0
4.879,7.1875,0,0,0,0,0
4.88,7.375,0,0,0,0,0
4.881,7.1875,0,0,0,0,0
4.882,7.3125,0,0,0,0,0
4.883,7.5,0,0,0,0,0
4.884,7.1875,0,0,0,0,0
4.885,7.1875,0,0,0,0,0
4.886,6.75,0,0,0,0,0
4.887,5.3125,0,0,0,0,0
4.888,5,0,0,0,0,0
4.889,4.6875,0,0,0,0,0
4.89,5.9375,0,0,0,0,0
4.891,6.25,0,0,0,0,0
4.892,6.6875,0,0,0,0,0
4.893,7.8125,0,0,0,0,0
4.894,7.5,0,0,0,0,0
4.895,8.4375,0,0,0,0,0
4.896,8.125,0,0,0,0,0
4.897,8.125,0,0,0,0,0
4.898,7.8125,0,0,0,0,0
4.899,8.125,0,0,0,0,0
4.9,7.625,0,0,0,0,0
4.901,7.5,0,0,0,0,0
4.902,6.75,0,0,0,0,0
4.903,5.9375,0,0,0,0,0
4.904,6.25,0,0,0,0,0
4.905,6.25,0,0,0,0,0
4.906,6.375,0,0,0,0,0
4.907,7.1875,0,0,0,0,0
4.908,6.875,0,0,0,0,0
4.909,7.1875,0,0,0,0,0
4.91,7.3125,0,0,0,0,0
4.911,7.5,0,0,0,0,0
4.912,7.3125,0,0,0,0,0
4.913,7.5,0,0,0,0,0
4.914,8.3125,0,0,0,0,0
4.915,8.125,0,0,0,0,0
4.916,8.875,0,0,0,0,0
4.917,9.6875,0,0,0,0,0
4.918,10.313,0,0,0,0,0
4.919,10,0,0,0,0,0
4.92,9.8125,0,0,0,0,0
4.921,10,0,0,0,0,0
4.922,10,0,0,0,0,0
4.923,9.6875,0,0,0,0,0
4.924,11.063,0,0,0,0,0
4.925,10.938,0,0,0,0,0
4.926,10.813,0,0,0,0,0
4.927,10.938,0,0,0,0,0
4.928,10.313,0,0,0,0,0
4.929,9.6875,0,0,0,0,0
4.93,9.5625,0,0,0,0,0
4.931,9.6875,0,0,0,0,0
4.932,9.6875,0,0,0,0,0
4.933,9.375,0,0,0,0,0
4.934,10.313,0,0,0,0,0
4.935,10.625,0,0,0,0,0
4.936,10.313,0,0,0,0,0
4.937,9.375,0,0,0,0,0
4.938,9.6875,0,0,0,0,0
4.939,9.6875,0,0,0,0,0
4.94,9.375,0,0,0,0,0
4.941,9.6875,0,0,0,0,0
4.942,9.8125,0,0,0,0,0
4.943,10.313,0,0,0,0,0
4.944,10.125,0,0,0,0,0
4.945,10.938,0,0,0,0,0
4.946,11.25,0,0,0,0,0
4.947,11.25,0,0,0,0,0
4.948,10.188,0,0,0,0,0
4.949,10,0,0,0,0,0
4.95,9.6875,0,0,0,0,0
4.951,9.6875,0,0,0,0,0
4.952,9.5625,0,0,0,0,0
4.953,9.0625,0,0,0,0,0
4.954,9.25,0,0,0,0,0
4.955,8.4375,0,0,0,0,0
4.956,8.125,0,0,0,0,0
4.957,8.4375,0,0,0,0,0
4.958,8.625,0,0,0,0,0
4.959,8.75,0,0,0,0,0
4.96,8.5625,0,0,0,0,0
4.961,9.0625,0,0,0,0,0
4.962,8.125,0,0,0,0,0
4.963,7.8125,0,0,0,0,0
4.964,7.1875,0,0,0,0,0
4.965,6.875,0,0,0,0,0
4.966,5.5,0,0,0,0,0
4.967,4.6875,0,0,0,0,0
4.968,4.6875,0,0,0,0,0
4.969,5,0,0,0,0,0
4.97,6.375,0,0,0,0,0
4.971,7.5,0,0,0,0,0
4.972,7.8125,0,0,0,0,0
4.973,7.8125,0,0,0,0,0
4.974,7.0625,0,0,0,0,0
4.975,5.9375,0,0,0,0,0
4.976,5.625,0,0,0,0,0
4.977,5.3125,0,0,0,0,0
4.978,5.625,0,0,0,0,0
4.979,5.3125,0,0,0,0,0
4.98,4.6875,0,0,0,0,0
4.981,4.0625,0,0,0,0,0
4.982,3.3125,0,0,0,0,0
4.983,3.4375,0,0,0,0,0
4.984,4.1875,0,0,0,0,0
4.985,4.375,0,0,0,0,0
4.986,3.125,0,0,0,0,0
4.987,2.5,0,0,0,0,0
4.988,1.875,0,0,0,0,0
4.989,1.5625,0,0,0,0,0
4.99,2.1875,0,0,0,0,0
4.991,3.4375,0,0,0,0,0
4.992,4.0625,0,0,0,0,0
4.993,4.0625,0,0,0,0,0
4.994,4.25,0,0,0,0,0
4.995,4.0625,0,0,0,0,0
4.996,4.6875,0,0,0,0,0
4.997,4.6875,0,0,0,0,0
4.998,4.8125,0,0,0,0,0
4.999,5,0,0,0,0,0
5,4.6875,0,0,0,0,0
5.001,4.0625,0,0,0,0,0
5.002,3.125,0,0,0,0,0
5.003,3.125,0,0,0,0,0
5.004,2.6875,0,0,0,0,0
5.005,2.8125,0,0,0,0,0
5.006,2.0625,0,0,0,0,0
5.007,1.5625,0,0,0,0,0
5.008,1.5625,0,0,0,0,0
5.009,1.5625,0,0,0,0,0
5.01,2.625,0,0,0,0,0
5.011,3.75,0,0,0,0,0
5.012,4.0625,0,0,0,0,0
5.013,4.6875,0,0,0,0,0
5.014,3.625,0,0,0,0,0
5.015,2.1875,0,0,0,0,0
5.016,2.5,0,0,0,0,0
5.017,2.1875,0,0,0,0,0
5.018,3.125,0,0,0,0,0
5.019,3.75,0,0,0,0,0
5.02,3.875,0,0,0,0,0
5.021,4.0625,0,0,0,0,0
5.022,4.6875,0,0,0,0,0
5.023,4.375,0,0,0,0,0
5.024,4.5,0,0,0,0,0
5.025,4.375,0,0,0,0,0
5.026,4.0625,0,0,0,0,0
5.027,4.0625,0,0,0,0,0
5.028,4.0625,0,0,0,0,0
5.029,3.75,0,0,0,0,0
5.03,3.4375,0,0,0,0,0
5.031,3.4375,0,0,0,0,0
5.032,3.625,0,0,0,0,0
5.033,3.125,0,0,0,0,0
5.034,2.5,0,0,0,0,0
5.035,1.875,0,0,0,0,0
5.036,1.6875,0,0,0,0,0
5.037,2.5,0,0,0,0,0
5.038,3.75,0,0,0,0,0
5.039,4.6875,0,0,0,0,0
5.04,4.25,0,0,0,0,0
5.041,2.8125,0,0,0,0,0
5.042,3.5625,0,0,0,0,0
5.043,4.375,0,0,0,0,0
5.044,2.8125,0,0,0,0,0
5.045,2.1875,0,0,0,0,0
5.046,1.75,0,0,0,0,0
5.047,2.1875,0,0,0,0,0
5.048,2.1875,0,0,0,0,0
5.049,2.1875,0,0,0,0,0
5.05,2.0625,0,0,0,0,0
5.051,1.875,0,0,0,0,0
5.052,2.3125,0,0,0,0,0
5.053,1.875,0,0,0,0,0
5.054,3.75,0,0,0,0,0
5.055,4.0625,0,0,0,0,0
5.056,4.375,0,0,0,0,0
5.057,3.75,0,0,0,0,0
5.058,2.1875,0,0,0,0,0
5.059,1.5625,1,0,0,0,0
5.06,0.5,0,0,0,0,0
5.061,0.625,0,0,0,0,0
5.062,0.9375,0,0,0,0,0
5.063,1.25,0,0,0,0,0
5.064,0.9375,0,0,0,0,0
5.065,1.25,0,0,0,0,0
5.066,1.5625,0,0,0,0,0
5.067,2.5,0,0,0,0,0
5.068,2.6875,0,0,0,0,0
5.069,2.8125,0,0,0,0,0
5.07,3.875,0,0,0,0,0
5.071,5,0,0,0,0,0
5.072,5.75,0,0,0,0,0
5.073,5.9375,0,0,0,0,0
5.074,6.25,0,0,0,0,0
5.075,5.9375,0,0,0,0,0
5.076,6.125,0,0,0,0,0
5.077,5.9375,0,0,0,0,0
5.078,7.625,0,0,0,0,0
5.079,9.0625,0,0,0,0,0
5.08,9.0625,0,0,0,0,0
5.081,9.6875,0,0,0,0,0
5.082,10.938,0,0,0,0,0
5.083,12.5,0,0,0,0,0
5.084,14.188,0,0,0,0,0
5.085,16.25,0,0,0,0,0
5.086,17.5,0,0,0,0,0
5.087,19.375,0,0,0,0,0
5.088,20.625,0,0,0,0,0
5.089,22.188,0,0,0,0,0
5.09,24.875,0,0,0,0,0
5.091,27.188,0,0,0,0,0
5.092,31.063,0,0,0,0,0
5.093,34.375,0,0,0,0,0
5.094,37.5,0,0,0,0,0
5.095,40.625,0,0,0,0,0
5.096,41.875,0,0,0,0,0
5.097,43.125,0,0,0,0,0
5.098,44.688,0,0,0,0,0
5.099,45.313,0,0,0,0,0
5.1,46.563,0,0,0,0,0
5.101,47.813,0,0,0,0,0
5.102,49.375,0,0,0,0,0
5.103,50,0,0,0,0,0
5.104,50.438,0,0,0,0,0
5.105,50.625,0,0,0,0,0
5.106,49.688,0,0,0,0,0
5.107,48.125,0,0,0,0,0
5.108,43.938,0,0,0,0,0
5.109,40.313,0,1,0,0,0
5.11,37.938,0,0,0,0,0
5.111,34.063,0,0,0,0,0
5.112,27.375,0,0,0,0,0
5.113,21.563,0,0,0,0,0
5.114,16.438,0,0,0,0,0
5.115,11.875,0,0,0,0,0
5.116,7.375,0,0,0,0,0
5.117,2.1875,0,0,0,0,0
5.118,-2.8125,0,0,0,0,0
5.119,-6.5625,0,0,0,0,0
5.12,-10.75,0,0,0,0,0
5.121,-13.438,0,0,0,0,0
5.122,-15,0,0,0,0,0
5.123,-16.25,0,0,0,0,0
5.124,-18.125,0,0,0,0,0
5.125,-20.313,0,0,0,0,0
5.126,-22.813,0,0,0,0,0
5.127,-24.375,0,0,0,0,0
5.128,-25.75,0,0,0,0,0
5.129,-27.813,0,0,0,0,0
5.13,-28.563,0,0,0,0,0
5.131,-29.063,0,0,0,0,0
5.132,-28.875,0,0,0,0,0
5.133,-28.125,0,0,0,0,0
5.134,-27.938,0,0,0,0,0
5.135,-26.563,0,0,0,0,0
5.136,-25.313,0,0,0,0,0
5.137,-24.063,0,0,0,0,0
5.138,-22.813,0,0,0,0,0
5.139,-21.563,0,0,0,0,0
5.14,-20.5,0,0,0,0,0
5.141,-20,0,0,0,0,0
5.142,-19.375,0,0,0,0,0
5.143,-18.75,0,0,0,0,0
5.144,-17.375,0,0,0,0,0
5.145,-15.938,0,0,0,0,0
5.146,-15.313,0,0,0,0,0
5.147,-14.688,0,0,0,0,0
5.148,-15,0,0,0,0,0
5.149,-15,0,0,0,0,0
5.15,-13.313,0,0,0,0,0
5.151,-12.188,0,0,0,0,0
5.152,-12.5,0,0,0,0,0
5.153,-11.875,0,0,0,0,0
5.154,-12.313,0,0,0,0,0
5.155,-12.813,0,0,0,0,0
5.156,-12.625,0,0,0,0,0
5.157,-12.5,0,0,0,0,0
5.158,-12.938,0,0,0,0,0
5.159,-13.125,0,0,0,0,0
5.16,-12.813,0,0,0,0,0
5.161,-11.875,0,0,0,0,0
5.162,-11.25,0,0,0,0,0
5.163,-10.313,0,0,0,0,0
5.164,-10.5,0,0,0,0,0
5.165,-10.625,0,0,0,0,0
5.166,-11.375,0,0,0,0,0
5.167,-11.563,0,0,0,0,0
5.168,-11.063,0,0,0,0,0
5.169,-11.25,0,0,0,0,0
5.17,-10.188,0,0,0,0,0
5.171,-10,0,0,0,0,0
5.172,-10.625,0,0,0,0,0
5.173,-10.313,0,0,0,0,0
5.174,-10.625,0,0,0,0,0
5.175,-10,0,0,0,0,0
5.176,-10.188,0,0,0,0,0
5.177,-10.313,0,0,0,0,0
5.178,-10.625,0,0,0,0,0
5.179,-10.625,0,0,0,0,0
5.18,-10.938,0,0,0,0,0
5.181,-11.875,0,0,0,0,0
5.182,-12,0,0,0,0,0
5.183,-12.5,0,0,0,0,0
5.184,-14.5,0,0,0,0,0
5.185,-15.938,0,0,0,0,0
5.186,-15.938,0,0,0,0,0
5.187,-16.25,0,0,0,0,0
5.188,-15.625,0,0,0,0,0
5.189,-15,0,0,0,0,0
5.19,-13.438,0,0,0,0,0
5.191,-11.875,0,0,0,0,0
5.192,-11.875,0,0,0,0,0
5.193,-11.875,0,0,0,0,0
5.194,-12.813,0,0,0,0,0
5.195,-13.438,0,0,0,0,0
5.196,-13.875,0,0,0,0,0
5.197,-13.75,0,0,0,0,0
5.198,-13,0,0,0,0,0
5.199,-11.563,0,0,0,0,0
5.2,-10.813,0,0,0,0,0
5.201,-9.6875,0,0,0,0,0
5.202,-8.4375,0,0,0,0,0
5.203,-7.8125,0,0,0,0,0
5.204,-7.5,0,0,0,0,0
5.205,-7.5,0,0,0,0,0
5.206,-5.625,0,0,0,0,0
5.207,-4.0625,0,0,0,0,0
5.208,-3.5625,0,0,0,0,0
5.209,-3.4375,0,0,0,0,0
5.21,-3.125,0,0,0,0,0
5.211,-3.125,0,0,0,0,0
5.212,-3.4375,0,0,0,0,0
5.213,-2.8125,0,0,0,0,0
5.214,-2.0625,0,0,0,0,0
5.215,-1.5625,0,0,0,0,0
5.216,-0.625,0,0,0,0,0
5.217,0.625,0,0,0,0,0
5.218,1.5625,0,0,0,0,0
5.219,2.5,0,0,0,0,0
5.22,2.5,0,0,0,0,0
5.221,2.5,0,0,0,0,0
5.222,3.125,0,0,0,0,0
5.223,3.125,0,0,1,0,0
5.224,3.75,0,0,0,0,0
5.225,4.0625,0,0,0,0,0
5.226,4.6875,0,0,0,0,0
5.227,4.6875,0,0,0,0,0
5.228,4.8125,0,0,0,0,0
5.229,5.3125,0,0,0,0,0
5.23,4.6875,0,0,0,0,0
5.231,5,0,0,0,0,0
5.232,5.3125,0,0,0,0,0
5.233,5.9375,0,0,0,0,0
5.234,5.625,0,0,0,0,0
5.235,5.625,0,0,0,0,0
5.236,5.625,0,0,0,0,0
5.237,5.625,0,0,0,0,0
5.238,5.5,0,0,0,0,0
5.239,4.6875,0,0,0,0,0
5.24,2.8125,0,0,0,0,0
5.241,1.875,0,0,0,0,0
5.242,2.8125,0,0,0,0,0
5.243,2.5,0,0,0,0,0
5.244,2.9375,0,0,0,0,0
5.245,3.75,0,0,0,0,0
5.246,4.375,0,0,0,0,0
5.247,4.375,0,0,0,0,0
5.248,4.1875,0,0,0,0,0
5.249,4.375,0,0,0,0,0
5.25,4.6875,0,0,0,0,0
5.251,4.375,0,0,0,0,0
5.252,3.9375,0,0,0,0,0
5.253,4.0625,0,0,0,0,0
5.254,4.1875,0,0,0,0,0
5.255,5.625,0,0,0,0,0
5.256,5.125,0,0,0,0,0
5.257,5.625,0,0,0,0,0
5.258,5.9375,0,0,0,0,0
5.259,5.9375,0,0,0,0,0
5.26,6.0625,0,0,0,0,0
5.261,6.5625,0,0,0,0,0
5.262,6.5625,0,0,0,0,0
5.263,7.1875,0,0,0,0,0
5.264,6.25,0,0,0,0,0
5.265,5.625,0,0,0,0,0
5.266,5.8125,0,0,0,0,0
5.267,5.625,0,0,0,0,0
5.268,5.5,0,0,0,0,0
5.269,5.3125,0,0,0,0,0
5.27,5.625,0,0,0,0,0
5.271,5.3125,0,0,0,0,0
5.272,5,0,0,0,0,0
5.273,5,0,0,0,0,0
5.274,5.4375,0,0,0,0,0
5.275,5.625,0,0,0,0,0
5.276,5.3125,0,0,0,0,0
5.277,5,0,0,0,0,0
5.278,4.5625,0,0,0,0,0
5.279,3.75,0,0,0,0,0
5.28,3.75,0,0,0,0,0
5.281,3.4375,0,0,0,0,0
5.282,3.125,0,0,0,0,0
5.283,3.4375,0,0,0,0,0
5.284,3.875,0,0,0,0,0
5.285,4.375,0,0,0,0,0
5.286,4.0625,0,0,0,0,0
5.287,3.75,0,0,0,0,0
5.288,3.75,0,0,0,0,0
5.289,3.125,0,0,0,0,0
5.29,4.1875,0,0,0,0,0
5.291,4.6875,0,0,0,0,0
5.292,5.3125,0,0,0,0,0
5.293,5.9375,0,0,0,0,0
5.294,6.0625,0,0,0,0,0
5.295,6.875,0,0,0,0,0
5.296,6.875,0,0,0,0,0
5.297,6.25,0,0,0,0,0
5.298,6.25,0,0,0,0,0
5.299,6.5625,0,0,0,0,0
5.3,5.9375,0,0,0,0,0
5.301,5,0,0,0,0,0
5.302,5.125,0,0,0,0,0
5.303,5.625,0,0,0,0,0
5.304,6.375,0,0,0,0,0
5.305,6.25,0,0,0,0,0
5.306,6.25,0,0,0,0,0
5.307,6.25,0,0,0,0,0
5.308,6.6875,0,0,0,0,0
5.309,7.1875,0,0,0,0,0
5.31,7.5,0,0,0,0,0
5.311,8.125,0,0,0,0,0
5.312,7.6875,0,0,0,0,0
5.313,7.5,0,0,0,0,0
5.314,6.25,0,0,0,0,0
5.315,5.9375,0,0,0,0,0
5.316,5.8125,0,0,0,0,0
5.317,5.3125,0,0,0,0,0
5.318,5.75,0,0,0,0,0
5.319,6.5625,0,0,0,0,0
5.32,6.6875,0,0,0,0,0
5.321,7.8125,0,0,0,0,0
5.322,7.6875,0,0,0,0,0
5.323,7.8125,0,0,0,0,0
5.324,8,0,0,0,0,0
5.325,7.8125,0,0,0,0,0
5.326,7.1875,0,0,0,0,0
5.327,7.5,0,0,0,0,0
5.328,7.625,0,0,0,0,0
5.329,7.5,0,0,0,0,0
5.33,7.1875,0,0,0,0,0
5.331,7.1875,0,0,0,0,0
5.332,7.8125,0,0,0,0,0
5.333,7.5,0,0,0,0,0
5.334,7.625,0,0,0,0,0
5.335,7.8125,0,0,0,0,0
5.336,7.5,0,0,0,0,0
5.337,7.1875,0,0,0,0,0
5.338,7.0625,0,0,0,0,0
5.339,6.5625,0,0,0,0,0
5.34,6.6875,0,0,0,0,0
5.341,6.5625,0,0,0,0,0
5.342,6.5625,0,0,0,0,0
5.343,5.9375,0,0,0,0,0
5.344,5.9375,0,0,0,0,0
5.345,5.625,0,0,0,0,0
5.346,7.3125,0,0,0,0,0
5.347,8.4375,0,0,0,0,0
5.348,8.3125,0,0,0,0,0
5.349,7.5,0,0,0,0,0
5.35,7.625,0,0,0,0,0
5.351,8.125,0,0,0,0,0
5.352,8.5625,0,0,0,0,0
5.353,9.6875,0,0,0,0,0
5.354,9.5625,0,0,0,0,0
5.355,9.0625,0,0,0,0,0
5.356,9.375,0,0,0,0,0
5.357,9.0625,0,0,0,0,0
5.358,9.5625,0,0,0,0,0
5.359,9.375,0,0,0,0,0
5.36,8.9375,0,0,0,0,0
5.361,8.125,0,0,0,0,0
5.362,8.75,0,0,0,0,0
5.363,9.0625,0,0,0,0,0
5.364,9.0625,0,0,0,0,0
5.365,8.75,0,0,0,0,0
5.366,8.75,0,0,0,0,0
5.367,8.75,0,0,0,0,0
5.368,8.75,0,0,0,0,0
5.369,8.75,0,0,0,0,0
5.37,8.125,0,0,0,0,0
5.371,7.8125,0,0,0,0,0
5.372,8.4375,0,0,0,0,0
5.373,8.4375,0,0,0,0,0
5.374,8.4375,0,0,0,0,0
5.375,8.4375,0,0,0,0,0
5.376,8.4375,0,0,0,0,0
5.377,8.75,0,0,0,0,0
5.378,9.6875,0,0,0,0,0
5.379,10.313,0,0,0,0,0
5.38,10.625,0,0,0,0,0
5.381,10.938,0,0,0,0,0
5.382,10.5,0,0,0,0,0
5.383,9.6875,0,0,0,0,0
5.384,9.6875,0,0,0,0,0
5.385,9.375,0,0,0,0,0
5.386,10,0,0,0,0,0
5.387,10.625,0,0,0,0,0
5.388,11.25,0,0,0,0,0
5.389,10.938,0,0,0,0,0
5.39,10.438,0,0,0,0,0
5.391,10.938,0,0,0,0,0
5.392,11.375,0,0,0,0,0
5.393,12.188,0,0,0,0,0
5.394,11.563,0,0,0,0,0
5.395,11.25,0,0,0,0,0
5.396,11.125,0,0,0,0,0
5.397,10.938,0,0,0,0,0
5.398,10.813,0,0,0,0,0
5.399,10.625,0,0,0,0,0
5.4,11.25,0,0,0,0,0
5.401,11.563,0,0,0,0,0
5.402,12.5,0,0,0,0,0
5.403,13.438,0,0,0,0,0
5.404,13.75,0,0,0,0,0
5.405,14.063,0,0,0,0,0
5.406,13.938,0,0,0,0,0
5.407,13.75,0,0,0,0,0
5.408,13.313,0,0,0,0,0
5.409,13.438,0,0,0,0,0
5.41,13.75,0,0,0,0,0
5.411,13.438,0,0,0,0,0
5.412,13.125,0,0,0,1,0
5.413,13.75,0,0,0,0,0
5.414,13.563,0,0,0,0,0
5.415,14.688,0,0,0,0,0
5.416,14.813,0,0,0,0,0
5.417,15,0,0,0,0,0
5.418,14.875,0,0,0,0,0
5.419,15.313,0,0,0,0,0
5.42,14.563,0,0,0,0,0
5.421,13.75,0,0,0,0,0
5.422,13.938,0,0,0,0,0
5.423,13.125,0,0,0,0,0
5.424,13.125,0,0,0,0,0
5.425,13.125,0,0,0,0,0
5.426,12.938,0,0,0,0,0
5.427,13.125,0,0,0,0,0
5.428,13.563,0,0,0,0,0
5.429,13.75,0,0,0,0,0
