0,1.875,0,0,0,0,0
0.001,3.125,0,0,0,0,0
0.002,2.8125,0,0,0,0,0
0.003,3.125,0,0,0,0,0
0.004,3.4375,0,0,0,0,0
0.005,2.5,0,0,0,0,0
0.006,2.5,0,0,0,0,0
0.007,2.5,0,0,0,0,0
0.008,2.8125,0,0,0,0,0
0.009,2.5,0,0,0,0,0
0.01,2.8125,0,0,0,0,0
0.011,3.125,0,0,0,0,0
0.012,3.4375,0,0,0,0,0
0.013,3.75,0,0,0,0,0
0.014,3.75,0,0,0,0,0
0.015,3.75,0,0,0,0,0
0.016,2.8125,0,0,0,0,0
0.017,3.125,0,0,0,0,0
0.018,3.4375,0,0,0,0,0
0.019,3.75,0,0,0,0,0
0.02,3.125,0,0,0,0,0
0.021,2.5,0,0,0,0,0
0.022,2.8125,0,0,0,0,0
0.023,3.125,0,0,0,0,0
0.024,2.5,0,0,0,0,0
0.025,3.125,0,0,0,0,0
0.026,3.125,0,0,0,0,0
0.027,3.125,0,0,0,0,0
0.028,2.8125,0,0,0,0,0
0.029,2.5,0,0,0,0,0
0.03,2.5,0,0,0,0,0
0.031,2.5,0,0,0,0,0
0.032,2.5,0,0,0,0,0
0.033,2.5,0,0,0,0,0
0.034,2.1875,0,0,0,0,0
0.035,1.875,0,0,0,0,0
0.036,2.1875,0,0,0,0,0
0.037,1.875,0,0,0,0,0
0.038,2.1875,0,0,0,0,0
0.039,2.5,0,0,0,0,0
0.04,2.1875,0,0,0,0,0
0.041,2.5,0,0,0,0,0
0.042,2.5,0,0,0,0,0
0.043,2.5,0,0,0,0,0
0.044,2.8125,0,0,0,0,0
0.045,3.125,0,0,0,0,0
0.046,3.125,0,0,0,0,0
0.047,3.125,0,0,0,0,0
0.048,3.125,0,0,0,0,0
0.049,3.125,0,0,0,0,0
0.05,3.125,0,0,0,0,0
0.051,3.125,0,0,0,0,0
0.052,3.125,0,0,0,0,0
0.053,3.125,0,0,0,0,0
0.054,3.75,0,0,0,0,0
0.055,4.375,0,0,0,0,0
0.056,3.4375,0,0,0,0,0
0.057,3.125,0,0,0,0,0
0.058,3.125,0,0,0,0,0
0.059,3.75,0,0,0,0,0
0.06,3.4375,0,0,0,0,0
0.061,3.125,0,0,0,0,0
0.062,2.8125,0,0,0,0,0
0.063,2.5,0,0,0,0,0
0.064,2.1875,0,0,0,0,0
0.065,2.5,0,0,0,0,0
0.066,2.5,0,0,0,0,0
0.067,2.5,0,0,0,0,0
0.068,2.5,0,0,0,0,0
0.069,2.5,0,0,0,0,0
0.07,2.1875,0,0,0,0,0
0.071,1.875,0,0,0,0,0
0.072,1.875,0,0,0,0,0
0.073,1.875,0,0,0,0,0
0.074,1.875,0,0,0,0,0
0.075,1.875,0,0,0,0,0
0.076,1.875,0,0,0,0,0
0.077,1.875,0,0,0,0,0
0.078,2.1875,0,0,0,0,0
0.079,2.5,0,0,0,0,0
0.08,2.1875,0,0,0,0,0
0.081,2.5,0,0,0,0,0
0.082,2.5,0,0,0,0,0
0.083,1.875,0,0,0,0,0
0.084,1.5625,0,0,0,0,0
0.085,1.25,0,0,0,0,0
0.086,1.875,0,0,0,0,0
0.087,1.875,0,0,0,0,0
0.088,2.1875,0,0,0,0,0
0.089,2.5,0,0,0,0,0
0.09,2.8125,0,0,0,0,0
0.091,3.125,0,0,0,0,0
0.092,2.8125,0,0,0,0,0
0.093,2.5,0,0,0,0,0
0.094,2.1875,0,0,0,0,0
0.095,1.875,0,0,0,0,0
0.096,1.5625,0,0,0,0,0
0.097,1.875,0,0,0,0,0
0.098,1.5625,0,0,0,0,0
0.099,1.25,0,0,0,0,0
0.1,1.25,0,0,0,0,0
0.101,1.25,0,0,0,0,0
0.102,1.25,0,0,0,0,0
0.103,1.25,0,0,0,0,0
0.104,1.25,0,0,0,0,0
0.105,1.25,0,0,0,0,0
0.106,1.25,0,0,0,0,0
0.107,1.25,0,0,0,0,0
0.108,0.625,0,0,0,0,0
0.109,0.625,0,0,0,0,0
0.11,0.3125,0,0,0,0,0
0.111,0.625,0,0,0,0,0
0.112,0,0,0,0,0,0
0.113,0.625,0,0,0,0,0
0.114,0,0,0,0,0,0
0.115,0.625,0,0,0,0,0
0.116,0.625,0,0,0,0,0
0.117,0.625,0,0,0,0,0
0.118,0.9375,0,0,0,0,0
0.119,1.25,0,0,0,0,0
0.12,1.25,0,0,0,0,0
0.121,1.25,0,0,0,0,0
0.122,0.3125,0,0,0,0,0
0.123,0.625,0,0,0,0,0
0.124,0.9375,0,0,0,0,0
0.125,1.875,0,0,0,0,0
0.126,1.875,0,0,0,0,0
0.127,1.875,0,0,0,0,0
0.128,1.875,0,0,0,0,0
0.129,1.875,0,0,0,0,0
0.13,1.875,0,0,0,0,0
0.131,1.875,0,0,0,0,0
0.132,1.875,0,0,0,0,0
0.133,1.875,0,0,0,0,0
0.134,1.875,0,0,0,0,0
0.135,1.875,0,0,0,0,0
0.136,1.875,0,0,0,0,0
0.137,1.875,0,0,0,0,0
0.138,1.5625,0,0,0,0,0
0.139,1.25,0,0,0,0,0
0.14,1.25,0,0,0,0,0
0.141,1.875,0,0,0,0,0
0.142,1.25,0,0,0,0,0
0.143,1.875,0,0,0,0,0
0.144,1.5625,0,0,0,0,0
0.145,1.25,0,0,0,0,0
0.146,1.875,0,0,0,0,0
0.147,1.875,0,0,0,0,0
0.148,1.875,0,0,0,0,0
0.149,1.875,0,0,0,0,0
0.15,1.875,0,0,0,0,0
0.151,2.5,0,0,0,0,0
0.152,2.8125,0,0,0,0,0
0.153,3.125,0,0,0,0,0
0.154,3.75,0,0,0,0,0
0.155,3.75,0,0,0,0,0
0.156,3.75,0,0,0,0,0
0.157,3.75,0,0,0,0,0
0.158,3.4375,0,0,0,0,0
0.159,3.75,0,0,0,0,0
0.16,3.75,0,0,0,0,0
0.161,3.75,0,0,0,0,0
0.162,4.0625,0,0,0,0,0
0.163,4.375,0,0,0,0,0
0.164,4.6875,0,0,0,0,0
0.165,5.625,0,0,0,0,0
0.166,5.3125,0,0,0,0,0
0.167,5.625,0,0,0,0,0
0.168,5,0,0,0,0,0
0.169,5,0,0,0,0,0
0.17,4.6875,0,0,0,0,0
0.171,4.375,0,0,0,0,0
0.172,4.375,0,0,0,0,0
0.173,4.375,0,0,0,0,0
0.174,5,0,0,0,0,0
0.175,5.625,0,0,0,0,0
0.176,5.3125,0,0,0,0,0
0.177,5,0,0,0,0,0
0.178,5.9375,0,0,0,0,0
0.179,5.625,0,0,0,0,0
0.18,5.3125,0,0,0,0,0
0.181,5,0,0,0,0,0
0.182,4.6875,0,0,0,0,0
0.183,5,0,0,0,0,0
0.184,5.3125,0,0,0,0,0
0.185,5.625,0,0,0,0,0
0.186,5.625,0,0,0,0,0
0.187,5.625,0,0,0,0,0
0.188,5.625,0,0,0,0,0
0.189,5.625,0,0,0,0,0
0.19,5.9375,0,0,0,0,0
0.191,6.25,0,0,0,0,0
0.192,5.9375,0,0,0,0,0
0.193,5.625,0,0,0,0,0
0.194,5.625,0,0,0,0,0
0.195,5.625,0,0,0,0,0
0.196,5.3125,0,0,0,0,0
0.197,5,0,0,0,0,0
0.198,5,0,0,0,0,0
0.199,4.375,0,0,0,0,0
0.2,4.6875,0,0,0,0,0
0.201,5,0,0,0,0,0
0.202,5,0,0,0,0,0
0.203,5,0,0,0,0,0
0.204,4.6875,0,0,0,0,0
0.205,4.375,0,0,0,0,0
0.206,4.0625,0,0,0,0,0
0.207,3.75,0,0,0,0,0
0.208,3.125,0,0,0,0,0
0.209,3.125,0,0,0,0,0
0.21,2.8125,0,0,0,0,0
0.211,2.5,0,0,0,0,0
0.212,2.1875,0,0,0,0,0
0.213,2.5,0,0,0,0,0
0.214,2.5,0,0,0,0,0
0.215,2.5,0,0,0,0,0
0.216,2.1875,0,0,0,0,0
0.217,2.5,0,0,0,0,0
0.218,2.1875,0,0,0,0,0
0.219,1.875,0,0,0,0,0
0.22,1.25,0,0,0,0,0
0.221,1.25,0,0,0,0,0
0.222,1.5625,0,0,0,0,0
0.223,1.25,0,0,0,0,0
0.224,1.875,0,0,0,0,0
0.225,1.25,0,0,0,0,0
0.226,1.875,0,0,0,0,0
0.227,1.875,0,0,0,0,0
0.228,1.5625,0,0,0,0,0
0.229,1.25,0,0,0,0,0
0.23,1.25,0,0,0,0,0
0.231,1.25,0,0,0,0,0
0.232,0.625,0,0,0,0,0
0.233,0.625,0,0,0,0,0
0.234,0,0,0,0,0,0
0.235,0.625,0,0,0,0,0
0.236,0.625,0,0,0,0,0
0.237,0.625,0,0,0,0,0
0.238,0.625,0,0,0,0,0
0.239,0.625,0,0,0,0,0
0.24,0.625,0,0,0,0,0
0.241,0.625,0,0,0,0,0
0.242,0.625,0,0,0,0,0
0.243,0.625,0,0,0,0,0
0.244,0.9375,0,0,0,0,0
0.245,1.25,0,0,0,0,0
0.246,1.5625,0,0,0,0,0
0.247,1.875,0,0,0,0,0
0.248,1.875,0,0,0,0,0
0.249,1.875,0,0,0,0,0
0.25,0.9375,0,0,0,0,0
0.251,0,0,0,0,0,0
0.252,0,0,0,0,0,0
0.253,0,0,0,0,0,0
0.254,-0.3125,0,0,0,0,0
0.255,0,0,0,0,0,0
0.256,-0.3125,0,0,0,0,0
0.257,0,0,0,0,0,0
0.258,0,0,0,0,0,0
0.259,0.625,0,0,0,0,0
0.26,0.9375,0,0,0,0,0
0.261,0.625,0,0,0,0,0
0.262,0.9375,0,0,0,0,0
0.263,0.625,0,0,0,0,0
0.264,0.9375,0,0,0,0,0
0.265,1.25,0,0,0,0,0
0.266,1.25,0,0,0,0,0
0.267,1.25,0,0,0,0,0
0.268,1.5625,0,0,0,0,0
0.269,1.25,0,0,0,0,0
0.27,1.25,0,0,0,0,0
0.271,1.25,0,0,0,0,0
0.272,0.625,0,0,0,0,0
0.273,0,0,0,0,0,0
0.274,0,0,0,0,0,0
0.275,0,0,0,0,0,0
0.276,0.3125,0,0,0,0,0
0.277,0,0,0,0,0,0
0.278,0.3125,0,0,0,0,0
0.279,0.625,0,0,0,0,0
0.28,0.625,0,0,0,0,0
0.281,0,0,0,0,0,0
0.282,0.9375,0,0,0,0,0
0.283,0.625,0,0,0,0,0
0.284,0.9375,0,0,0,0,0
0.285,0.625,0,0,0,0,0
0.286,0.625,0,0,0,0,0
0.287,0.625,0,0,0,0,0
0.288,0.625,0,0,0,0,0
0.289,0.625,0,0,0,0,0
0.29,0.625,0,0,0,0,0
0.291,0.625,0,0,0,0,0
0.292,0.9375,0,0,0,0,0
0.293,1.25,0,0,0,0,0
0.294,0.9375,0,0,0,0,0
0.295,0.625,0,0,0,0,0
0.296,0.625,0,0,0,0,0
0.297,0,0,0,0,0,0
0.298,0.625,0,0,0,0,0
0.299,0.625,0,0,0,0,0
0.3,0.625,0,0,0,0,0
0.301,0.625,0,0,0,0,0
0.302,1.25,0,0,0,0,0
0.303,1.25,0,0,0,0,0
0.304,1.25,0,0,0,0,0
0.305,1.25,0,0,0,0,0
0.306,0.625,0,0,0,0,0
0.307,0,0,0,0,0,0
0.308,0.625,0,0,0,0,0
0.309,0.625,0,0,0,0,0
0.31,0.9375,0,0,0,0,0
0.311,0.625,0,0,0,0,0
0.312,0.3125,0,0,0,0,0
0.313,0,0,0,0,0,0
0.314,-0.3125,0,0,0,0,0
0.315,-0.625,0,0,0,0,0
0.316,-0.625,0,0,0,0,0
0.317,-0.625,1,0,0,0,0
0.318,0.3125,0,0,0,0,0
0.319,0,0,0,0,0,0
0.32,0,0,0,0,0,0
0.321,0,0,0,0,0,0
0.322,0,0,0,0,0,0
0.323,0,0,0,0,0,0
0.324,0.3125,0,0,0,0,0
0.325,0.625,0,0,0,0,0
0.326,0.625,0,0,0,0,0
0.327,1.25,0,0,0,0,0
0.328,1.5625,0,0,0,0,0
0.329,1.875,0,0,0,0,0
0.33,1.5625,0,0,0,0,0
0.331,1.875,0,0,0,0,0
0.332,2.1875,0,0,0,0,0
0.333,3.125,0,0,0,0,0
0.334,4.6875,0,0,0,0,0
0.335,6.25,0,0,0,0,0
0.336,8.125,0,0,0,0,0
0.337,8.75,0,0,0,0,0
0.338,9.0625,0,0,0,0,0
0.339,9.375,0,0,0,0,0
0.34,11.875,0,0,0,0,0
0.341,13.75,0,0,0,0,0
0.342,15.625,0,0,0,0,0
0.343,16.25,0,0,0,0,0
0.344,16.875,0,0,0,0,0
0.345,18.125,0,0,0,0,0
0.346,18.75,0,0,0,0,0
0.347,20,0,0,0,0,0
0.348,21.25,0,0,0,0,0
0.349,23.125,0,0,0,0,0
0.35,25.313,0,0,0,0,0
0.351,28.125,0,0,0,0,0
0.352,31.563,0,0,0,0,0
0.353,34.375,0,0,0,0,0
0.354,37.188,0,0,0,0,0
0.355,38.125,0,0,0,0,0
0.356,38.75,0,0,0,0,0
0.357,38.75,0,0,0,0,0
0.358,39.063,0,0,0,0,0
0.359,38.125,0,1,0,0,0
0.36,36.25,0,0,0,0,0
0.361,35,0,0,0,0,0
0.362,33.125,0,0,0,0,0
0.363,32.5,0,0,0,0,0
0.364,30.625,0,0,0,0,0
0.365,28.125,0,0,0,0,0
0.366,25.938,0,0,0,0,0
0.367,23.75,0,0,0,0,0
0.368,20.938,0,0,0,0,0
0.369,17.5,0,0,0,0,0
0.37,12.813,0,0,0,0,0
0.371,8.125,0,0,0,0,0
0.372,2.8125,0,0,0,0,0
0.373,-3.75,0,0,0,0,0
0.374,-11.25,0,0,0,0,0
0.375,-17.5,0,0,0,0,0
0.376,-22.813,0,0,0,0,0
0.377,-26.875,0,0,0,0,0
0.378,-29.688,0,0,0,0,0
0.379,-31.875,0,0,0,0,0
0.38,-31.875,0,0,0,0,0
0.381,-31.875,0,0,0,0,0
0.382,-30.625,0,0,0,0,0
0.383,-28.75,0,0,0,0,0
0.384,-25.625,0,0,0,0,0
0.385,-22.5,0,0,0,0,0
0.386,-20,0,0,0,0,0
0.387,-18.125,0,0,0,0,0
0.388,-17.188,0,0,0,0,0
0.389,-15.625,0,0,0,0,0
0.39,-14.375,0,0,0,0,0
0.391,-12.5,0,0,0,0,0
0.392,-10.625,0,0,0,0,0
0.393,-9.375,0,0,0,0,0
0.394,-6.25,0,0,0,0,0
0.395,-3.75,0,0,0,0,0
0.396,-1.875,0,0,0,0,0
0.397,0,0,0,0,0,0
0.398,2.1875,0,0,0,0,0
0.399,3.75,0,0,0,0,0
0.4,3.75,0,0,0,0,0
0.401,3.125,0,0,0,0,0
0.402,4.6875,0,0,0,0,0
0.403,5,0,0,0,0,0
0.404,5,0,0,0,0,0
0.405,5,0,0,0,0,0
0.406,4.375,0,0,0,0,0
0.407,5,0,0,0,0,0
0.408,5,0,0,0,0,0
0.409,5,0,0,0,0,0
0.41,4.6875,0,0,0,0,0
0.411,4.375,0,0,0,0,0
0.412,4.375,0,0,0,0,0
0.413,4.375,0,0,0,0,0
0.414,4.0625,0,0,0,0,0
0.415,4.375,0,0,0,0,0
0.416,4.6875,0,0,0,0,0
0.417,5,0,0,0,0,0
0.418,4.6875,0,0,0,0,0
0.419,5,0,0,0,0,0
0.42,4.375,0,0,0,0,0
0.421,4.375,0,0,0,0,0
0.422,4.6875,0,0,0,0,0
0.423,4.375,0,0,0,0,0
0.424,3.75,0,0,0,0,0
0.425,3.125,0,0,0,0,0
0.426,2.8125,0,0,0,0,0
0.427,1.875,0,0,0,0,0
0.428,2.5,0,0,0,0,0
0.429,3.125,0,0,0,0,0
0.43,2.8125,0,0,0,0,0
0.431,3.125,0,0,0,0,0
0.432,2.8125,0,0,0,0,0
0.433,1.875,0,0,0,0,0
0.434,2.1875,0,0,0,0,0
0.435,1.875,0,0,0,0,0
0.436,1.875,0,0,0,0,0
0.437,1.875,0,0,0,0,0
0.438,1.5625,0,0,0,0,0
0.439,1.25,0,0,0,0,0
0.44,0,0,0,0,0,0
0.441,-0.625,0,0,0,0,0
0.442,-1.25,0,0,0,0,0
0.443,-1.25,0,0,0,0,0
0.444,-1.5625,0,0,0,0,0
0.445,-1.25,0,0,0,0,0
0.446,-1.25,0,0,0,0,0
0.447,-1.25,0,0,0,0,0
0.448,-0.9375,0,0,0,0,0
0.449,-1.25,0,0,0,0,0
0.45,-1.25,0,0,0,0,0
0.451,-1.875,0,0,0,0,0
0.452,-2.1875,0,0,0,0,0
0.453,-2.5,0,0,0,0,0
0.454,-2.8125,0,0,0,0,0
0.455,-3.125,0,0,0,0,0
0.456,-3.125,0,0,0,0,0
0.457,-3.125,0,0,0,0,0
0.458,-3.125,0,0,0,0,0
0.459,-3.125,0,0,0,0,0
0.46,-3.125,0,0,0,0,0
0.461,-2.5,0,0,0,0,0
0.462,-2.5,0,0,0,0,0
0.463,-2.5,0,0,0,0,0
0.464,-3.125,0,0,0,0,0
0.465,-3.125,0,0,0,0,0
0.466,-3.125,0,0,0,0,0
0.467,-3.125,0,0,0,0,0
0.468,-3.75,0,0,0,0,0
0.469,-3.75,0,0,0,0,0
0.47,-3.75,0,0,0,0,0
0.471,-3.125,0,0,0,0,0
0.472,-3.125,0,0,0,0,0
0.473,-3.125,0,0,0,0,0
0.474,-3.125,0,0,0,0,0
0.475,-3.125,0,0,0,0,0
0.476,-3.125,0,0,0,0,0
0.477,-3.125,0,0,0,0,0
0.478,-3.125,0,0,0,0,0
0.479,-3.125,0,0,0,0,0
0.48,-2.1875,0,0,0,0,0
0.481,-1.875,0,0,0,0,0
0.482,-0.9375,0,0,0,0,0
0.483,-0.625,0,0,0,0,0
0.484,-0.3125,0,0,0,0,0
0.485,-0.625,0,0,0,0,0
0.486,-0.3125,0,0,0,0,0
0.487,-0.625,0,0,0,0,0
0.488,-0.3125,0,0,0,0,0
0.489,0,0,0,0,0,0
0.49,0,0,0,0,0,0
0.491,0,0,0,1,0,0
0.492,0.3125,0,0,0,0,0
0.493,0,0,0,0,0,0
0.494,0.3125,0,0,0,0,0
0.495,-0.625,0,0,0,0,0
0.496,-0.3125,0,0,0,0,0
0.497,-0.625,0,0,0,0,0
0.498,-0.625,0,0,0,0,0
0.499,-0.625,0,0,0,0,0
0.5,-0.9375,0,0,0,0,0
0.501,0,0,0,0,0,0
0.502,0,0,0,0,0,0
0.503,0,0,0,0,0,0
0.504,0,0,0,0,0,0
0.505,0,0,0,0,0,0
0.506,0,0,0,0,0,0
0.507,0,0,0,0,0,0
0.508,-0.3125,0,0,0,0,0
0.509,-0.625,0,0,0,0,0
0.51,-0.625,0,0,0,0,0
0.511,-0.625,0,0,0,0,0
0.512,-0.625,0,0,0,0,0
0.513,-0.625,0,0,0,0,0
0.514,-0.3125,0,0,0,0,0
0.515,-0.625,0,0,0,0,0
0.516,0,0,0,0,0,0
0.517,0,0,0,0,0,0
0.518,0,0,0,0,0,0
0.519,0,0,0,0,0,0
0.52,-0.625,0,0,0,0,0
0.521,0,0,0,0,0,0
0.522,-0.3125,0,0,0,0,0
0.523,-0.625,0,0,0,0,0
0.524,-0.625,0,0,0,0,0
0.525,0.625,0,0,0,0,0
0.526,0,0,0,0,0,0
0.527,0.625,0,0,0,0,0
0.528,0.625,0,0,0,0,0
0.529,0.625,0,0,0,0,0
0.53,0.625,0,0,0,0,0
0.531,0.625,0,0,0,0,0
0.532,0.625,0,0,0,0,0
0.533,0.625,0,0,0,0,0
0.534,0.9375,0,0,0,0,0
0.535,1.25,0,0,0,0,0
0.536,1.5625,0,0,0,0,0
0.537,1.875,0,0,0,0,0
0.538,1.875,0,0,0,0,0
0.539,1.875,0,0,0,0,0
0.54,1.5625,0,0,0,0,0
0.541,1.25,0,0,0,0,0
0.542,1.5625,0,0,0,0,0
0.543,1.875,0,0,0,0,0
0.544,1.875,0,0,0,0,0
0.545,1.875,0,0,0,0,0
0.546,1.5625,0,0,0,0,0
0.547,1.25,0,0,0,0,0
0.548,1.25,0,0,0,0,0
0.549,1.25,0,0,0,0,0
0.55,1.25,0,0,0,0,0
0.551,1.25,0,0,0,0,0
0.552,1.5625,0,0,0,0,0
0.553,1.25,0,0,0,0,0
0.554,0.9375,0,0,0,0,0
0.555,0.625,0,0,0,0,0
0.556,0.625,0,0,0,0,0
0.557,0.625,0,0,0,0,0
0.558,0.625,0,0,0,0,0
0.559,0.625,0,0,0,0,0
0.56,0.9375,0,0,0,0,0
0.561,1.25,0,0,0,0,0
0.562,0.625,0,0,0,0,0
0.563,0.625,0,0,0,0,0
0.564,0.3125,0,0,0,0,0
0.565,0,0,0,0,0,0
0.566,0,0,0,0,0,0
0.567,0,0,0,0,0,0
0.568,0,0,0,0,0,0
0.569,0,0,0,0,0,0
0.57,0.3125,0,0,0,0,0
0.571,0.625,0,0,0,0,0
0.572,0,0,0,0,0,0
0.573,0,0,0,0,0,0
0.574,0,0,0,0,0,0
0.575,0,0,0,0,0,0
0.576,0,0,0,0,0,0
0.577,0,0,0,0,0,0
0.578,-0.3125,0,0,0,0,0
0.579,-0.625,0,0,0,0,0
0.58,0,0,0,0,0,0
0.581,0,0,0,0,0,0
0.582,-0.625,0,0,0,0,0
0.583,-0.625,0,0,0,0,0
0.584,-0.625,0,0,0,0,0
0.585,-0.625,0,0,0,0,0
0.586,-0.625,0,0,0,0,0
0.587,-0.625,0,0,0,0,0
0.588,-1.5625,0,0,0,0,0
0.589,-1.875,0,0,0,0,0
0.59,-1.875,0,0,0,0,0
0.591,-1.875,0,0,0,0,0
0.592,-1.5625,0,0,0,0,0
0.593,-1.875,0,0,0,0,0
0.594,-1.875,0,0,0,0,0
0.595,-1.875,0,0,0,0,0
0.596,-3.125,0,0,0,0,0
0.597,-3.125,0,0,0,0,0
0.598,-3.75,0,0,0,0,0
0.599,-3.75,0,0,0,0,0
0.6,-3.4375,0,0,0,0,0
0.601,-3.75,0,0,0,0,0
0.602,-4.0625,0,0,0,0,0
0.603,-4.375,0,0,0,0,0
0.604,-5.3125,0,0,0,0,0
0.605,-5.625,0,0,0,0,0
0.606,-5.625,0,0,0,0,0
0.607,-6.25,0,0,0,0,0
0.608,-6.25,0,0,0,0,0
0.609,-6.25,0,0,0,0,0
0.61,-5.9375,0,0,0,0,0
0.611,-5.625,0,0,0,0,0
0.612,-6.5625,0,0,0,0,0
0.613,-6.875,0,0,0,0,0
0.614,-6.5625,0,0,0,0,0
0.615,-6.875,0,0,0,0,0
0.616,-6.5625,0,0,0,0,0
0.617,-6.25,0,0,0,0,0
0.618,-6.875,0,0,0,0,0
0.619,-6.875,0,0,0,0,0
0.62,-7.1875,0,0,0,0,0
0.621,-7.5,0,0,0,0,0
0.622,-7.1875,0,0,0,0,0
0.623,-6.875,0,0,0,0,0
0.624,-7.1875,0,0,0,0,0
0.625,-6.875,0,0,0,0,0
0.626,-7.5,0,0,0,0,0
0.627,-8.125,0,0,0,0,0
0.628,-8.125,0,0,0,0,0
0.629,-8.125,0,0,0,0,0
0.63,-8.4375,0,0,0,0,0
0.631,-8.125,0,0,0,0,0
0.632,-8.125,0,0,0,0,0
0.633,-8.125,0,0,0,0,0
0.634,-8.125,0,0,0,0,0
0.635,-8.125,0,0,0,0,0
0.636,-8.125,0,0,0,0,0
0.637,-8.125,0,0,0,0,0
0.638,-8.75,0,0,0,0,0
0.639,-8.75,0,0,0,0,0
0.64,-8.75,0,0,0,0,0
0.641,-8.75,0,0,0,0,0
0.642,-9.0625,0,0,0,0,0
0.643,-9.375,0,0,0,0,0
0.644,-9.6875,0,0,0,0,0
0.645,-9.375,0,0,0,0,0
0.646,-9.375,0,0,0,0,0
0.647,-9.375,0,0,0,0,0
0.648,-9.375,0,0,0,0,0
0.649,-9.375,0,0,0,0,0
0.65,-9.375,0,0,0,1,0
0.651,-9.375,0,0,0,0,0
0.652,-9.375,0,0,0,0,0
0.653,-9.375,0,0,0,0,0
0.654,-9.0625,0,0,0,0,0
0.655,-8.125,0,0,0,0,0
0.656,-8.125,0,0,0,0,0
0.657,-8.125,0,0,0,0,0
0.658,-7.5,0,0,0,0,0
0.659,-8.125,0,0,0,0,0
0.66,-7.1875,0,0,0,0,0
0.661,-6.875,0,0,0,0,0
0.662,-6.5625,0,0,0,0,0
0.663,-6.875,0,0,0,0,0
0.664,-7.1875,0,0,0,0,0
0.665,-7.5,0,0,0,0,0
0.666,-7.1875,0,0,0,0,0
0.667,-7.5,0,0,0,0,0
0.668,-6.5625,0,0,0,0,0
0.669,-6.25,0,0,0,0,0
0.67,-5.9375,0,0,0,0,0
0.671,-6.25,0,0,0,0,0
0.672,-5.9375,0,0,0,0,0
0.673,-5.625,0,0,0,0,0
0.674,-5,0,0,0,0,0
0.675,-5,0,0,0,0,0
0.676,-4.375,0,0,0,0,0
0.677,-4.375,0,0,0,0,0
0.678,-3.75,0,0,0,0,0
0.679,-3.75,0,0,0,0,0
0.68,-3.4375,0,0,0,0,0
0.681,-3.75,0,0,0,0,0
0.682,-2.5,0,0,0,0,0
0.683,-2.5,0,0,0,0,0
0.684,-1.5625,0,0,0,0,0
0.685,-1.25,0,0,0,0,0
0.686,-0.9375,0,0,0,0,0
0.687,0,0,0,0,0,0
0.688,0,0,0,0,0,0
0.689,0,0,0,0,0,0
0.69,0.3125,0,0,0,0,0
0.691,0,0,0,0,0,0
0.692,0,0,0,0,0,0
0.693,0.625,0,0,0,0,0
0.694,0.3125,0,0,0,0,0
0.695,0.625,0,0,0,0,0
0.696,0.9375,0,0,0,0,0
0.697,1.25,0,0,0,0,0
0.698,1.875,0,0,0,0,0
0.699,1.875,0,0,0,0,0
0.7,1.875,0,0,0,0,0
0.701,2.5,0,0,0,0,0
0.702,3.125,0,0,0,0,0
0.703,3.125,0,0,0,0,0
0.704,3.125,0,0,0,0,0
0.705,3.125,0,0,0,0,0
0.706,4.0625,0,0,0,0,0
0.707,4.375,0,0,0,0,0
0.708,4.0625,0,0,0,0,0
0.709,4.375,0,0,0,0,0
0.71,4.375,0,0,0,0,0
0.711,4.375,0,0,0,0,0
0.712,4.375,0,0,0,0,0
0.713,4.375,0,0,0,0,0
0.714,5,0,0,0,0,0
0.715,5,0,0,0,0,0
0.716,5,0,0,0,0,0
0.717,5.625,0,0,0,0,0
0.718,5,0,0,0,0,0
0.719,5.625,0,0,0,0,0
0.72,5,0,0,0,0,0
0.721,5.625,0,0,0,0,0
0.722,5.625,0,0,0,0,0
0.723,5.625,0,0,0,0,0
0.724,5.3125,0,0,0,0,0
0.725,5,0,0,0,0,0
0.726,5,0,0,0,0,0
0.727,5,0,0,0,0,0
0.728,5.3125,0,0,0,0,0
0.729,5.625,0,0,0,0,0
0.73,5.625,0,0,0,0,0
0.731,5.625,0,0,0,0,0
0.732,5.9375,0,0,0,0,0
0.733,6.25,0,0,0,0,0
0.734,6.25,0,0,0,0,0
0.735,6.25,0,0,0,0,0
0.736,6.25,0,0,0,0,0
0.737,6.25,0,0,0,0,0
0.738,6.25,0,0,0,0,0
0.739,6.25,0,0,0,0,0
0.74,5.625,0,0,0,0,0
0.741,5.625,0,0,0,0,0
0.742,6.25,0,0,0,0,0
0.743,5.625,0,0,0,0,0
0.744,5.3125,0,0,0,0,0
0.745,5,0,0,0,0,0
0.746,4.6875,0,0,0,0,0
0.747,5,0,0,0,0,0
0.748,4.6875,0,0,0,0,0
0.749,5,0,0,0,0,0
0.75,5.3125,0,0,0,0,0
0.751,5.625,0,0,0,0,0
0.752,5.3125,0,0,0,0,0
0.753,5.625,0,0,0,0,0
0.754,5.3125,0,0,0,0,0
0.755,5,0,0,0,0,0
0.756,5.3125,0,0,0,0,0
0.757,5,0,0,0,0,0
0.758,5,0,0,0,0,0
0.759,5,0,0,0,0,0
0.76,4.6875,0,0,0,0,0
0.761,4.375,0,0,0,0,0
0.762,4.375,0,0,0,0,0
0.763,4.375,0,0,0,0,0
0.764,4.6875,0,0,0,0,0
0.765,5,0,0,0,0,0
0.766,4.6875,0,0,0,0,1
0.767,4.375,0,0,0,0,0
0.768,4.375,0,0,0,0,0
0.769,4.375,0,0,0,0,0
0.77,4.375,0,0,0,0,0
0.771,4.375,0,0,0,0,0
0.772,4.6875,0,0,0,0,0
0.773,5,0,0,0,0,0
0.774,5,0,0,0,0,0
0.775,5,0,0,0,0,0
0.776,5.625,0,0,0,0,0
0.777,5,0,0,0,0,0
0.778,5,0,0,0,0,0
0.779,5,0,0,0,0,0
0.78,5,0,0,0,0,0
0.781,5,0,0,0,0,0
0.782,5,0,0,0,0,0
0.783,5,0,0,0,0,0
0.784,4.6875,0,0,0,0,0
0.785,4.375,0,0,0,0,0
0.786,4.0625,0,0,0,0,0
0.787,3.75,0,0,0,0,0
0.788,3.75,0,0,0,0,0
0.789,3.75,0,0,0,0,0
0.79,4.0625,0,0,0,0,0
0.791,4.375,0,0,0,0,0
0.792,4.6875,0,0,0,0,0
0.793,5,0,0,0,0,0
0.794,4.6875,0,0,0,0,0
0.795,4.375,0,0,0,0,0
0.796,4.0625,0,0,0,0,0
0.797,4.375,0,0,0,0,0
0.798,4.6875,0,0,0,0,0
0.799,4.375,0,0,0,0,0
0.8,4.0625,0,0,0,0,0
0.801,3.75,0,0,0,0,0
0.802,4.0625,0,0,0,0,0
0.803,3.75,0,0,0,0,0
0.804,3.125,0,0,0,0,0
0.805,3.125,0,0,0,0,0
0.806,3.75,0,0,0,0,0
0.807,3.75,0,0,0,0,0
0.808,4.6875,0,0,0,0,0
0.809,4.375,0,0,0,0,0
0.81,4.0625,0,0,0,0,0
0.811,3.75,0,0,0,0,0
0.812,3.4375,0,0,0,0,0
0.813,3.125,0,0,0,0,0
0.814,3.125,0,0,0,0,0
0.815,3.125,0,0,0,0,0
0.816,3.125,0,0,0,0,0
0.817,2.5,0,0,0,0,0
0.818,2.8125,0,0,0,0,0
0.819,3.125,0,0,0,0,0
0.82,3.125,0,0,0,0,0
0.821,3.125,0,0,0,0,0
0.822,3.125,0,0,0,0,0
0.823,3.125,0,0,0,0,0
0.824,3.125,0,0,0,0,0
0.825,3.125,0,0,0,0,0
0.826,3.75,0,0,0,0,0
0.827,3.75,0,0,0,0,0
0.828,3.125,0,0,0,0,0
0.829,3.75,0,0,0,0,0
0.83,4.0625,0,0,0,0,0
0.831,3.75,0,0,0,0,0
0.832,3.75,0,0,0,0,0
0.833,3.75,0,0,0,0,0
0.834,3.4375,0,0,0,0,0
0.835,3.125,0,0,0,0,0
0.836,3.125,0,0,0,0,0
0.837,3.125,0,0,0,0,0
0.838,3.125,0,0,0,0,0
0.839,3.125,0,0,0,0,0
0.84,3.125,0,0,0,0,0
0.841,3.125,0,0,0,0,0
0.842,3.125,0,0,0,0,0
0.843,3.125,0,0,0,0,0
0.844,3.125,0,0,0,0,0
0.845,3.125,0,0,0,0,0
0.846,3.4375,0,0,0,0,0
0.847,3.75,0,0,0,0,0
0.848,3.75,0,0,0,0,0
0.849,3.75,0,0,0,0,0
0.85,3.75,0,0,0,0,0
0.851,3.75,0,0,0,0,0
0.852,3.75,0,0,0,0,0
0.853,3.75,0,0,0,0,0
0.854,4.0625,0,0,0,0,0
0.855,4.375,0,0,0,0,0
0.856,4.375,0,0,0,0,0
0.857,4.375,0,0,0,0,0
0.858,4.375,0,0,0,0,0
0.859,4.375,0,0,0,0,0
0.86,4.6875,0,0,0,0,0
0.861,4.375,0,0,0,0,0
0.862,5,0,0,0,0,0
0.863,5,0,0,0,0,0
0.864,4.6875,0,0,0,0,0
0.865,4.375,0,0,0,0,0
0.866,4.375,0,0,0,0,0
0.867,4.375,0,0,0,0,0
0.868,4.6875,0,0,0,0,0
0.869,5,0,0,0,0,0
0.87,5,0,0,0,0,0
0.871,5,0,0,0,0,0
0.872,5,0,0,0,0,0
0.873,4.375,0,0,0,0,0
0.874,5,0,0,0,0,0
0.875,5,0,0,0,0,0
0.876,5,0,0,0,0,0
0.877,5,0,0,0,0,0
0.878,5,0,0,0,0,0
0.879,5,0,0,0,0,0
0.88,5,0,0,0,0,0
0.881,5,0,0,0,0,0
0.882,5.3125,0,0,0,0,0
0.883,5,0,0,0,0,0
0.884,4.6875,0,0,0,0,0
0.885,5,0,0,0,0,0
0.886,4.0625,0,0,0,0,0
0.887,3.75,0,0,0,0,0
0.888,3.4375,0,0,0,0,0
0.889,3.125,0,0,0,0,0
0.89,3.125,0,0,0,0,0
0.891,3.125,0,0,0,0,0
0.892,3.125,0,0,0,0,0
0.893,3.125,0,0,0,0,0
0.894,3.125,0,0,0,0,0
0.895,3.125,0,0,0,0,0
0.896,3.125,0,0,0,0,0
0.897,3.125,0,0,0,0,0
0.898,3.4375,0,0,0,0,0
0.899,3.75,0,0,0,0,0
0.9,4.0625,0,0,0,0,0
0.901,4.375,0,0,0,0,0
0.902,4.0625,0,0,0,0,0
0.903,3.75,0,0,0,0,0
0.904,3.4375,0,0,0,0,0
0.905,3.125,0,0,0,0,0
0.906,3.4375,0,0,0,0,0
0.907,3.75,0,0,0,0,0
0.908,3.4375,0,0,0,0,0
0.909,3.125,0,0,0,0,0
0.91,3.125,0,0,0,0,0
0.911,3.125,0,0,0,0,0
0.912,3.4375,0,0,0,0,0
0.913,3.125,0,0,0,0,0
0.914,3.4375,0,0,0,0,0
0.915,3.75,0,0,0,0,0
0.916,3.75,0,0,0,0,0
0.917,3.75,0,0,0,0,0
0.918,3.75,0,0,0,0,0
0.919,3.75,0,0,0,0,0
0.92,4.0625,0,0,0,0,0
0.921,4.375,0,0,0,0,0
0.922,4.0625,0,0,0,0,0
0.923,3.75,0,0,0,0,0
0.924,3.75,0,0,0,0,0
0.925,3.75,0,0,0,0,0
0.926,4.0625,0,0,0,0,0
0.927,4.375,0,0,0,0,0
0.928,4.375,0,0,0,0,0
0.929,4.375,0,0,0,0,0
0.93,4.6875,0,0,0,0,0
0.931,3.75,0,0,0,0,0
0.932,4.0625,0,0,0,0,0
0.933,3.75,0,0,0,0,0
0.934,3.75,0,0,0,0,0
0.935,4.375,0,0,0,0,0
0.936,4.375,0,0,0,0,0
0.937,4.375,0,0,0,0,0
0.938,4.0625,0,0,0,0,0
0.939,3.75,0,0,0,0,0
0.94,4.6875,0,0,0,0,0
0.941,5,0,0,0,0,0
0.942,5,0,0,0,0,0
0.943,5.625,0,0,0,0,0
0.944,5.9375,0,0,0,0,0
0.945,6.25,0,0,0,0,0
0.946,5.625,0,0,0,0,0
0.947,5,0,0,0,0,0
0.948,5.625,0,0,0,0,0
0.949,5.625,0,0,0,0,0
0.95,5.625,0,0,0,0,0
0.951,5.625,0,0,0,0,0
0.952,5.625,0,0,0,0,0
0.953,5.625,0,0,0,0,0
0.954,6.25,0,0,0,0,0
0.955,6.25,0,0,0,0,0
0.956,6.5625,0,0,0,0,0
0.957,5.625,0,0,0,0,0
0.958,5.9375,0,0,0,0,0
0.959,6.25,0,0,0,0,0
0.96,6.25,0,0,0,0,0
0.961,6.25,0,0,0,0,0
0.962,6.5625,0,0,0,0,0
0.963,6.875,0,0,0,0,0
0.964,6.875,0,0,0,0,0
0.965,6.875,0,0,0,0,0
0.966,6.5625,0,0,0,0,0
0.967,6.875,0,0,0,0,0
0.968,6.25,0,0,0,0,0
0.969,6.25,0,0,0,0,0
0.97,5.9375,0,0,0,0,0
0.971,5.625,0,0,0,0,0
0.972,5.9375,0,0,0,0,0
0.973,5.625,0,0,0,0,0
0.974,5.9375,0,0,0,0,0
0.975,6.25,0,0,0,0,0
0.976,6.25,0,0,0,0,0
0.977,6.25,0,0,0,0,0
0.978,6.25,0,0,0,0,0
0.979,6.25,0,0,0,0,0
0.98,6.5625,0,0,0,0,0
0.981,6.875,0,0,0,0,0
0.982,6.875,0,0,0,0,0
0.983,6.875,0,0,0,0,0
0.984,6.5625,0,0,0,0,0
0.985,6.25,0,0,0,0,0
0.986,6.25,0,0,0,0,0
0.987,6.25,0,0,0,0,0
0.988,5.9375,0,0,0,0,0
0.989,6.25,0,0,0,0,0
0.99,6.25,0,0,0,0,0
0.991,6.25,0,0,0,0,0
0.992,6.5625,0,0,0,0,0
0.993,6.25,0,0,0,0,0
0.994,5.9375,0,0,0,0,0
0.995,6.25,0,0,0,0,0
0.996,5.9375,0,0,0,0,0
0.997,5,0,0,0,0,0
0.998,4.6875,0,0,0,0,0
0.999,4.375,0,0,0,0,0
1,4.6875,0,0,0,0,0
1.001,4.375,0,0,0,0,0
1.002,4.375,0,0,0,0,0
1.003,4.375,0,0,0,0,0
1.004,4.6875,0,0,0,0,0
1.005,4.375,0,0,0,0,0
1.006,4.6875,0,0,0,0,0
1.007,5,0,0,0,0,0
1.008,4.6875,0,0,0,0,0
1.009,3.75,0,0,0,0,0
1.01,4.0625,0,0,0,0,0
1.011,4.375,0,0,0,0,0
1.012,3.4375,0,0,0,0,0
1.013,3.75,0,0,0,0,0
1.014,2.8125,0,0,0,0,0
1.015,3.125,0,0,0,0,0
1.016,2.8125,0,0,0,0,0
1.017,2.5,0,0,0,0,0
1.018,2.5,0,0,0,0,0
1.019,2.5,0,0,0,0,0
1.02,2.8125,0,0,0,0,0
1.021,2.5,0,0,0,0,0
1.022,2.5,0,0,0,0,0
1.023,1.875,0,0,0,0,0
1.024,2.8125,0,0,0,0,0
1.025,3.125,0,0,0,0,0
1.026,3.125,0,0,0,0,0
1.027,3.125,0,0,0,0,0
1.028,3.125,0,0,0,0,0
1.029,3.125,0,0,0,0,0
1.03,3.125,0,0,0,0,0
1.031,3.125,0,0,0,0,0
1.032,2.8125,0,0,0,0,0
1.033,2.5,0,0,0,0,0
1.034,2.5,0,0,0,0,0
1.035,2.5,0,0,0,0,0
1.036,2.5,0,0,0,0,0
1.037,2.5,0,0,0,0,0
1.038,2.5,0,0,0,0,0
1.039,2.5,0,0,0,0,0
1.04,2.5,0,0,0,0,0
1.041,2.5,0,0,0,0,0
1.042,2.5,0,0,0,0,0
1.043,1.875,0,0,0,0,0
1.044,1.5625,0,0,0,0,0
1.045,1.25,0,0,0,0,0
1.046,1.875,0,0,0,0,0
1.047,1.25,0,0,0,0,0
1.048,1.25,0,0,0,0,0
1.049,1.25,0,0,0,0,0
1.05,0.625,0,0,0,0,0
1.051,1.25,0,0,0,0,0
1.052,1.5625,0,0,0,0,0
1.053,1.875,0,0,0,0,0
1.054,1.875,0,0,0,0,0
1.055,1.875,0,0,0,0,0
1.056,1.875,0,0,0,0,0
1.057,1.875,0,0,0,0,0
1.058,1.5625,0,0,0,0,0
1.059,1.875,0,0,0,0,0
1.06,1.875,0,0,0,0,0
1.061,1.875,0,0,0,0,0
1.062,1.875,0,0,0,0,0
1.063,1.875,0,0,0,0,0
1.064,1.5625,0,0,0,0,0
1.065,1.875,0,0,0,0,0
1.066,1.875,0,0,0,0,0
1.067,1.875,0,0,0,0,0
1.068,1.875,0,0,0,0,0
1.069,1.875,0,0,0,0,0
1.07,1.5625,0,0,0,0,0
1.071,2.5,0,0,0,0,0
1.072,1.875,0,0,0,0,0
1.073,2.5,0,0,0,0,0
1.074,2.5,0,0,0,0,0
1.075,2.5,0,0,0,0,0
1.076,2.5,0,0,0,0,0
1.077,2.5,0,0,0,0,0
1.078,1.875,0,0,0,0,0
1.079,1.25,0,0,0,0,0
1.08,1.25,0,0,0,0,0
1.081,1.25,0,0,0,0,0
1.082,1.5625,0,0,0,0,0
1.083,1.875,0,0,0,0,0
1.084,2.1875,0,0,0,0,0
1.085,2.5,0,0,0,0,0
1.086,1.5625,0,0,0,0,0
1.087,1.875,0,0,0,0,0
1.088,1.875,0,0,0,0,0
1.089,1.875,0,0,0,0,0
1.09,1.875,0,0,0,0,0
1.091,2.5,0,0,0,0,0
1.092,2.8125,0,0,0,0,0
1.093,3.125,0,0,0,0,0
1.094,2.8125,0,0,0,0,0
1.095,2.5,0,0,0,0,0
1.096,2.1875,0,0,0,0,0
1.097,2.5,0,0,0,0,0
1.098,2.5,0,0,0,0,0
1.099,2.5,0,0,0,0,0
1.1,2.1875,0,0,0,0,0
1.101,2.5,0,0,0,0,0
1.102,2.8125,0,0,0,0,0
1.103,3.125,0,0,0,0,0
1.104,3.125,0,0,0,0,0
1.105,3.125,0,0,0,0,0
1.106,2.5,0,0,0,0,0
1.107,2.5,0,0,0,0,0
1.108,1.875,0,0,0,0,0
1.109,1.875,1,0,0,0,0
1.11,1.875,0,0,0,0,0
1.111,1.875,0,0,0,0,0
1.112,1.5625,0,0,0,0,0
1.113,1.25,0,0,0,0,0
1.114,1.25,0,0,0,0,0
1.115,1.25,0,0,0,0,0
1.116,1.875,0,0,0,0,0
1.117,2.5,0,0,0,0,0
1.118,3.75,0,0,0,0,0
1.119,4.375,0,0,0,0,0
1.12,5,0,0,0,0,0
1.121,5.625,0,0,0,0,0
1.122,6.875,0,0,0,0,0
1.123,8.125,0,0,0,0,0
1.124,8.75,0,0,0,0,0
1.125,10,0,0,0,0,0
1.126,10.625,0,0,0,0,0
1.127,11.25,0,0,0,0,0
1.128,12.188,0,0,0,0,0
1.129,14.375,0,0,0,0,0
1.13,15.938,0,0,0,0,0
1.131,18.125,0,0,0,0,0
1.132,18.75,0,0,0,0,0
1.133,19.375,0,0,0,0,0
1.134,20.938,0,0,0,0,0
1.135,22.5,0,0,0,0,0
1.136,24.688,0,0,0,0,0
1.137,26.25,0,0,0,0,0
1.138,28.438,0,0,0,0,0
1.139,30.625,0,0,0,0,0
1.14,33.125,0,0,0,0,0
1.141,36.25,0,0,0,0,0
1.142,37.5,0,0,0,0,0
1.143,38.75,0,0,0,0,0
1.144,39.063,0,0,0,0,0
1.145,39.375,0,0,0,0,0
1.146,39.375,0,0,0,0,0
1.147,39.375,0,0,0,0,0
1.148,38.125,0,0,0,0,0
1.149,36.25,0,0,0,0,0
1.15,35.313,0,0,0,0,0
1.151,33.75,0,0,0,0,0
1.152,32.813,0,1,0,0,0
1.153,30.625,0,0,0,0,0
1.154,28.438,0,0,0,0,0
1.155,26.25,0,0,0,0,0
1.156,22.813,0,0,0,0,0
1.157,18.75,0,0,0,0,0
1.158,14.688,0,0,0,0,0
1.159,10,0,0,0,0,0
1.16,5,0,0,0,0,0
1.161,-1.25,0,0,0,0,0
1.162,-7.8125,0,0,0,0,0
1.163,-15,0,0,0,0,0
1.164,-20.625,0,0,0,0,0
1.165,-25,0,0,0,0,0
1.166,-27.5,0,0,0,0,0
1.167,-28.75,0,0,0,0,0
1.168,-30.313,0,0,0,0,0
1.169,-29.375,0,0,0,0,0
1.17,-28.438,0,0,0,0,0
1.171,-26.875,0,0,0,0,0
1.172,-25,0,0,0,0,0
1.173,-21.875,0,0,0,0,0
1.174,-19.063,0,0,0,0,0
1.175,-16.25,0,0,0,0,0
1.176,-13.75,0,0,0,0,0
1.177,-13.125,0,0,0,0,0
1.178,-11.563,0,0,0,0,0
1.179,-10,0,0,0,0,0
1.18,-8.125,0,0,0,0,0
1.181,-6.25,0,0,0,0,0
1.182,-5,0,0,0,0,0
1.183,-2.5,0,0,0,0,0
1.184,-1.5625,0,0,0,0,0
1.185,-0.625,0,0,0,0,0
1.186,1.25,0,0,0,0,0
1.187,3.125,0,0,0,0,0
1.188,4.6875,0,0,0,0,0
1.189,5.625,0,0,0,0,0
1.19,5.625,0,0,0,0,0
1.191,6.875,0,0,0,0,0
1.192,7.1875,0,0,0,0,0
1.193,7.5,0,0,0,0,0
1.194,7.8125,0,0,0,0,0
1.195,7.5,0,0,0,0,0
1.196,7.5,0,0,0,0,0
1.197,6.875,0,0,0,0,0
1.198,7.1875,0,0,0,0,0
1.199,7.5,0,0,0,0,0
1.2,7.1875,0,0,0,0,0
1.201,6.875,0,0,0,0,0
1.202,6.5625,0,0,0,0,0
1.203,6.25,0,0,0,0,0
1.204,6.5625,0,0,0,0,0
1.205,6.25,0,0,0,0,0
1.206,6.5625,0,0,0,0,0
1.207,6.25,0,0,0,0,0
1.208,6.25,0,0,0,0,0
1.209,5.625,0,0,0,0,0
1.21,5.9375,0,0,0,0,0
1.211,6.25,0,0,0,0,0
1.212,5.9375,0,0,0,0,0
1.213,5.625,0,0,0,0,0
1.214,5,0,0,0,0,0
1.215,5,0,0,0,0,0
1.216,4.375,0,0,0,0,0
1.217,4.375,0,0,0,0,0
1.218,4.375,0,0,0,0,0
1.219,3.75,0,0,0,0,0
1.22,4.0625,0,0,0,0,0
1.221,4.375,0,0,0,0,0
1.222,3.75,0,0,0,0,0
1.223,3.75,0,0,0,0,0
1.224,2.5,0,0,0,0,0
1.225,1.875,0,0,0,0,0
1.226,1.875,0,0,0,0,0
1.227,1.25,0,0,0,0,0
1.228,1.25,0,0,0,0,0
1.229,1.25,0,0,0,0,0
1.23,0.9375,0,0,0,0,0
1.231,0,0,0,0,0,0
1.232,0,0,0,0,0,0
1.233,-0.625,0,0,0,0,0
1.234,-0.625,0,0,0,0,0
1.235,-0.625,0,0,0,0,0
1.236,-0.625,0,0,0,0,0
1.237,-0.625,0,0,0,0,0
1.238,-1.25,0,0,0,0,0
1.239,-1.25,0,0,0,0,0
1.24,-1.875,0,0,0,0,0
1.241,-1.875,0,0,0,0,0
1.242,-1.875,0,0,0,0,0
1.243,-1.875,0,0,0,0,0
1.244,-1.875,0,0,0,0,0
1.245,-1.875,0,0,0,0,0
1.246,-2.1875,0,0,0,0,0
1.247,-2.5,0,0,0,0,0
1.248,-2.8125,0,0,0,0,0
1.249,-3.125,0,0,0,0,0
1.25,-2.5,0,0,0,0,0
1.251,-2.5,0,0,0,0,0
1.252,-2.5,0,0,0,0,0
1.253,-2.5,0,0,0,0,0
1.254,-1.875,0,0,0,0,0
1.255,-1.875,0,0,0,0,0
1.256,-1.5625,0,0,0,0,0
1.257,-1.875,0,0,0,0,0
1.258,-2.1875,0,0,0,0,0
1.259,-2.5,0,0,0,0,0
1.26,-1.875,0,0,0,0,0
1.261,-1.875,0,0,0,0,0
1.262,-1.875,0,0,0,0,0
1.263,-1.875,0,0,0,0,0
1.264,-1.875,0,0,0,0,0
1.265,-1.875,0,0,0,0,0
1.266,-1.5625,0,0,0,0,0
1.267,-1.25,0,0,0,0,0
1.268,-1.25,0,0,0,0,0
1.269,-0.625,0,0,0,0,0
1.27,-0.9375,0,0,0,0,0
1.271,-0.625,0,0,0,0,0
1.272,-0.625,0,0,0,0,0
1.273,0,0,0,0,0,0
1.274,0.3125,0,0,0,0,0
1.275,1.25,0,0,0,0,0
1.276,0.9375,0,0,0,0,0
1.277,0.625,0,0,0,0,0
1.278,0.625,0,0,0,0,0
1.279,0.625,0,0,0,0,0
1.28,0.9375,0,0,0,0,0
1.281,1.25,0,0,0,0,0
1.282,0.9375,0,0,0,0,0
1.283,1.875,0,0,0,0,0
1.284,1.25,0,0,0,0,0
1.285,1.875,0,0,0,0,0
1.286,1.5625,0,0,0,0,0
1.287,1.25,0,0,0,0,0
1.288,1.5625,0,0,0,0,0
1.289,1.25,0,0,0,0,0
1.29,1.875,0,0,0,0,0
1.291,1.875,0,0,0,0,0
1.292,1.875,0,0,0,0,0
1.293,1.875,0,0,0,0,0
1.294,1.5625,0,0,1,0,0
1.295,1.25,0,0,0,0,0
1.296,0.9375,0,0,0,0,0
1.297,0.625,0,0,0,0,0
1.298,0.625,0,0,0,0,0
1.299,0.625,0,0,0,0,0
1.3,0.3125,0,0,0,0,0
1.301,0,0,0,0,0,0
1.302,0.3125,0,0,0,0,0
1.303,0.625,0,0,0,0,0
1.304,0,0,0,0,0,0
1.305,0.625,0,0,0,0,0
1.306,0.625,0,0,0,0,0
1.307,0.625,0,0,0,0,0
1.308,0.625,0,0,0,0,0
1.309,0,0,0,0,0,0
1.31,0.3125,0,0,0,0,0
1.311,0,0,0,0,0,0
1.312,0.3125,0,0,0,0,0
1.313,0,0,0,0,0,0
1.314,0.625,0,0,0,0,0
1.315,0,0,0,0,0,0
1.316,0.625,0,0,0,0,0
1.317,0.625,0,0,0,0,0
1.318,0.625,0,0,0,0,0
1.319,0.625,0,0,0,0,0
1.32,0.9375,0,0,0,0,0
1.321,1.25,0,0,0,0,0
1.322,1.25,0,0,0,0,0
1.323,1.25,0,0,0,0,0
1.324,1.25,0,0,0,0,0
1.325,1.25,0,0,0,0,0
1.326,0.9375,0,0,0,0,0
1.327,0.625,0,0,0,0,0
1.328,0.625,0,0,0,0,0
1.329,0.625,0,0,0,0,0
1.33,0.3125,0,0,0,0,0
1.331,0,0,0,0,0,0
1.332,0,0,0,0,0,0
1.333,0,0,0,0,0,0
1.334,0,0,0,0,0,0
1.335,0,0,0,0,0,0
1.336,0,0,0,0,0,0
1.337,0,0,0,0,0,0
1.338,0,0,0,0,0,0
1.339,0,0,0,0,0,0
1.34,0,0,0,0,0,0
1.341,0,0,0,0,0,0
1.342,-0.3125,0,0,0,0,0
1.343,0,0,0,0,0,0
1.344,0.3125,0,0,0,0,0
1.345,0.625,0,0,0,0,0
1.346,0.3125,0,0,0,0,0
1.347,0,0,0,0,0,0
1.348,0.3125,0,0,0,0,0
1.349,0.625,0,0,0,0,0
1.35,0.625,0,0,0,0,0
1.351,0,0,0,0,0,0
1.352,-0.3125,0,0,0,0,0
1.353,-0.625,0,0,0,0,0
1.354,-0.625,0,0,0,0,0
1.355,-0.625,0,0,0,0,0
1.356,-0.625,0,0,0,0,0
1.357,-0.625,0,0,0,0,0
1.358,-0.625,0,0,0,0,0
1.359,-0.625,0,0,0,0,0
1.36,-0.3125,0,0,0,0,0
1.361,-0.625,0,0,0,0,0
1.362,-0.625,0,0,0,0,0
1.363,-0.625,0,0,0,0,0
1.364,-0.625,0,0,0,0,0
1.365,-0.625,0,0,0,0,0
1.366,-0.625,0,0,0,0,0
1.367,-1.25,0,0,0,0,0
1.368,-2.1875,0,0,0,0,0
1.369,-1.875,0,0,0,0,0
1.37,-1.5625,0,0,0,0,0
1.371,-1.875,0,0,0,0,0
1.372,-1.875,0,0,0,0,0
1.373,-1.875,0,0,0,0,0
1.374,-1.875,0,0,0,0,0
1.375,-1.875,0,0,0,0,0
1.376,-2.1875,0,0,0,0,0
1.377,-3.125,0,0,0,0,0
1.378,-3.4375,0,0,0,0,0
1.379,-3.75,0,0,0,0,0
1.38,-3.4375,0,0,0,0,0
1.381,-3.125,0,0,0,0,0
1.382,-3.75,0,0,0,0,0
1.383,-3.75,0,0,0,0,0
1.384,-3.4375,0,0,0,0,0
1.385,-3.75,0,0,0,0,0
1.386,-3.4375,0,0,0,0,0
1.387,-4.375,0,0,0,0,0
1.388,-4.375,0,0,0,0,0
1.389,-4.375,0,0,0,0,0
1.39,-4.6875,0,0,0,0,0
1.391,-4.375,0,0,0,0,0
1.392,-4.375,0,0,0,0,0
1.393,-5,0,0,0,0,0
1.394,-5.3125,0,0,0,0,0
1.395,-5.625,0,0,0,0,0
1.396,-6.25,0,0,0,0,0
1.397,-6.25,0,0,0,0,0
1.398,-6.25,0,0,0,0,0
1.399,-6.25,0,0,0,0,0
1.4,-6.25,0,0,0,0,0
1.401,-6.875,0,0,0,0,0
1.402,-7.1875,0,0,0,0,0
1.403,-7.5,0,0,0,0,0
1.404,-8.125,0,0,0,0,0
1.405,-8.125,0,0,0,0,0
1.406,-7.8125,0,0,0,0,0
1.407,-8.125,0,0,0,0,0
1.408,-8.125,0,0,0,0,0
1.409,-8.125,0,0,0,0,0
1.41,-8.125,0,0,0,0,0
1.411,-8.125,0,0,0,0,0
1.412,-8.125,0,0,0,0,0
1.413,-8.75,0,0,0,0,0
1.414,-8.75,0,0,0,0,0
1.415,-8.75,0,0,0,0,0
1.416,-8.75,0,0,0,0,0
1.417,-8.75,0,0,0,0,0
1.418,-8.75,0,0,0,0,0
1.419,-9.375,0,0,0,0,0
1.42,-9.375,0,0,0,0,0
1.421,-9.375,0,0,0,0,0
1.422,-9.375,0,0,0,0,0
1.423,-9.375,0,0,0,0,0
1.424,-9.6875,0,0,0,0,0
1.425,-10,0,0,0,0,0
1.426,-9.6875,0,0,0,0,0
1.427,-10,0,0,0,0,0
1.428,-10,0,0,0,0,0
1.429,-10,0,0,0,0,0
1.43,-10,0,0,0,0,0
1.431,-10,0,0,0,0,0
1.432,-10,0,0,0,0,0
1.433,-10,0,0,0,0,0
1.434,-9.6875,0,0,0,0,0
1.435,-10,0,0,0,0,0
1.436,-9.6875,0,0,0,0,0
1.437,-9.375,0,0,0,0,0
1.438,-9.375,0,0,0,0,0
1.439,-9.375,0,0,0,0,0
1.44,-9.375,0,0,0,0,0
1.441,-9.375,0,0,0,0,0
1.442,-9.6875,0,0,0,1,0
1.443,-10,0,0,0,0,0
1.444,-9.6875,0,0,0,0,0
1.445,-10,0,0,0,0,0
1.446,-10,0,0,0,0,0
1.447,-9.375,0,0,0,0,0
1.448,-10,0,0,0,0,0
1.449,-9.375,0,0,0,0,0
1.45,-9.0625,0,0,0,0,0
1.451,-8.125,0,0,0,0,0
1.452,-8.4375,0,0,0,0,0
1.453,-8.75,0,0,0,0,0
1.454,-8.4375,0,0,0,0,0
1.455,-7.5,0,0,0,0,0
1.456,-7.5,0,0,0,0,0
1.457,-6.875,0,0,0,0,0
1.458,-7.5,0,0,0,0,0
1.459,-7.5,0,0,0,0,0
1.46,-7.5,0,0,0,0,0
1.461,-7.5,0,0,0,0,0
1.462,-6.875,0,0,0,0,0
1.463,-5.625,0,0,0,0,0
1.464,-5.9375,0,0,0,0,0
1.465,-5.625,0,0,0,0,0
1.466,-5.3125,0,0,0,0,0
1.467,-4.375,0,0,0,0,0
1.468,-4.6875,0,0,0,0,0
1.469,-4.375,0,0,0,0,0
1.47,-4.6875,0,0,0,0,0
1.471,-3.75,0,0,0,0,0
1.472,-3.75,0,0,0,0,0
1.473,-3.125,0,0,0,0,0
1.474,-2.5,0,0,0,0,0
1.475,-1.875,0,0,0,0,0
1.476,-1.25,0,0,0,0,0
1.477,-1.25,0,0,0,0,0
1.478,-1.25,0,0,0,0,0
1.479,-0.625,0,0,0,0,0
1.48,-0.625,0,0,0,0,0
1.481,-0.625,0,0,0,0,0
1.482,-0.3125,0,0,0,0,0
1.483,-0.625,0,0,0,0,0
1.484,0.3125,0,0,0,0,0
1.485,0.625,0,0,0,0,0
1.486,0.625,0,0,0,0,0
1.487,1.25,0,0,0,0,0
1.488,1.25,0,0,0,0,0
1.489,1.25,0,0,0,0,0
1.49,1.5625,0,0,0,0,0
1.491,1.875,0,0,0,0,0
1.492,1.875,0,0,0,0,0
1.493,1.875,0,0,0,0,0
1.494,1.875,0,0,0,0,0
1.495,2.5,0,0,0,0,0
1.496,2.8125,0,0,0,0,0
1.497,3.125,0,0,0,0,0
1.498,3.4375,0,0,0,0,0
1.499,3.125,0,0,0,0,0
1.5,3.4375,0,0,0,0,0
1.501,3.75,0,0,0,0,0
1.502,3.4375,0,0,0,0,0
1.503,3.75,0,0,0,0,0
1.504,3.75,0,0,0,0,0
1.505,3.75,0,0,0,0,0
1.506,4.6875,0,0,0,0,0
1.507,4.375,0,0,0,0,0
1.508,5,0,0,0,0,0
1.509,4.375,0,0,0,0,0
1.51,5,0,0,0,0,0
1.511,5,0,0,0,0,0
1.512,5,0,0,0,0,0
1.513,5,0,0,0,0,0
1.514,5,0,0,0,0,0
1.515,5,0,0,0,0,0
1.516,4.6875,0,0,0,0,0
1.517,4.375,0,0,0,0,0
1.518,4.6875,0,0,0,0,0
1.519,5,0,0,0,0,0
1.52,5,0,0,0,0,0
1.521,5,0,0,0,0,0
1.522,5,0,0,0,0,0
1.523,5,0,0,0,0,0
1.524,5,0,0,0,0,0
1.525,5,0,0,0,0,0
1.526,5,0,0,0,0,0
1.527,5,0,0,0,0,0
1.528,5.3125,0,0,0,0,0
1.529,5,0,0,0,0,0
1.53,5,0,0,0,0,0
1.531,5.625,0,0,0,0,0
1.532,4.375,0,0,0,0,0
1.533,3.75,0,0,0,0,0
1.534,4.0625,0,0,0,0,0
1.535,3.75,0,0,0,0,0
1.536,3.125,0,0,0,0,0
1.537,2.5,0,0,0,0,0
1.538,3.125,0,0,0,0,0
1.539,3.125,0,0,0,0,0
1.54,3.4375,0,0,0,0,0
1.541,3.125,0,0,0,0,0
1.542,2.8125,0,0,0,0,0
1.543,2.5,0,0,0,0,0
1.544,2.8125,0,0,0,0,0
1.545,3.125,0,0,0,0,0
1.546,2.8125,0,0,0,0,0
1.547,3.125,0,0,0,0,0
1.548,3.125,0,0,0,0,0
1.549,3.125,0,0,0,0,0
1.55,3.4375,0,0,0,0,0
1.551,3.75,0,0,0,0,0
1.552,3.4375,0,0,0,0,0
1.553,3.125,0,0,0,0,1
1.554,3.4375,0,0,0,0,0
1.555,3.75,0,0,0,0,0
1.556,3.75,0,0,0,0,0
1.557,3.75,0,0,0,0,0
1.558,3.75,0,0,0,0,0
1.559,3.75,0,0,0,0,0
1.56,3.4375,0,0,0,0,0
1.561,3.125,0,0,0,0,0
1.562,3.125,0,0,0,0,0
1.563,3.125,0,0,0,0,0
1.564,3.125,0,0,0,0,0
1.565,3.75,0,0,0,0,0
1.566,3.125,0,0,0,0,0
1.567,3.125,0,0,0,0,0
1.568,3.125,0,0,0,0,0
1.569,3.125,0,0,0,0,0
1.57,3.125,0,0,0,0,0
1.571,3.125,0,0,0,0,0
1.572,2.8125,0,0,0,0,0
1.573,2.5,0,0,0,0,0
1.574,2.8125,0,0,0,0,0
1.575,3.125,0,0,0,0,0
1.576,2.8125,0,0,0,0,0
1.577,2.5,0,0,0,0,0
1.578,2.5,0,0,0,0,0
1.579,2.5,0,0,0,0,0
1.58,2.5,0,0,0,0,0
1.581,2.5,0,0,0,0,0
1.582,2.5,0,0,0,0,0
1.583,2.5,0,0,0,0,0
1.584,2.5,0,0,0,0,0
1.585,2.5,0,0,0,0,0
1.586,3.125,0,0,0,0,0
1.587,3.125,0,0,0,0,0
1.588,2.8125,0,0,0,0,0
1.589,3.125,0,0,0,0,0
1.59,2.8125,0,0,0,0,0
1.591,3.125,0,0,0,0,0
1.592,3.4375,0,0,0,0,0
1.593,3.125,0,0,0,0,0
1.594,3.125,0,0,0,0,0
1.595,3.75,0,0,0,0,0
1.596,3.4375,0,0,0,0,0
1.597,3.75,0,0,0,0,0
1.598,3.4375,0,0,0,0,0
1.599,3.75,0,0,0,0,0
1.6,3.75,0,0,0,0,0
1.601,3.75,0,0,0,0,0
1.602,3.75,0,0,0,0,0
1.603,3.75,0,0,0,0,0
1.604,3.75,0,0,0,0,0
1.605,3.75,0,0,0,0,0
1.606,3.4375,0,0,0,0,0
1.607,3.75,0,0,0,0,0
1.608,3.4375,0,0,0,0,0
1.609,3.125,0,0,0,0,0
1.61,3.125,0,0,0,0,0
1.611,3.125,0,0,0,0,0
1.612,3.125,0,0,0,0,0
1.613,3.125,0,0,0,0,0
1.614,2.8125,0,0,0,0,0
1.615,3.125,0,0,0,0,0
1.616,3.125,0,0,0,0,0
1.617,2.5,0,0,0,0,0
1.618,3.4375,0,0,0,0,0
1.619,3.75,0,0,0,0,0
1.62,3.4375,0,0,0,0,0
1.621,3.75,0,0,0,0,0
1.622,3.4375,0,0,0,0,0
1.623,3.125,0,0,0,0,0
1.624,3.125,0,0,0,0,0
1.625,3.125,0,0,0,0,0
1.626,3.125,0,0,0,0,0
1.627,3.125,0,0,0,0,0
1.628,2.8125,0,0,0,0,0
1.629,2.5,0,0,0,0,0
1.63,2.8125,0,0,0,0,0
1.631,3.125,0,0,0,0,0
1.632,3.125,0,0,0,0,0
1.633,3.125,0,0,0,0,0
1.634,3.125,0,0,0,0,0
1.635,3.125,0,0,0,0,0
1.636,3.125,0,0,0,0,0
1.637,3.125,0,0,0,0,0
1.638,3.125,0,0,0,0,0
1.639,3.125,0,0,0,0,0
1.64,2.8125,0,0,0,0,0
1.641,2.5,0,0,0,0,0
1.642,2.8125,0,0,0,0,0
1.643,3.125,0,0,0,0,0
1.644,3.125,0,0,0,0,0
1.645,3.125,0,0,0,0,0
1.646,3.125,0,0,0,0,0
1.647,3.125,0,0,0,0,0
1.648,3.4375,0,0,0,0,0
1.649,3.75,0,0,0,0,0
1.65,2.8125,0,0,0,0,0
1.651,3.125,0,0,0,0,0
1.652,3.125,0,0,0,0,0
1.653,3.125,0,0,0,0,0
1.654,3.125,0,0,0,0,0
1.655,3.125,0,0,0,0,0
1.656,3.125,0,0,0,0,0
1.657,3.125,0,0,0,0,0
1.658,3.125,0,0,0,0,0
1.659,3.125,0,0,0,0,0
1.66,3.4375,0,0,0,0,0
1.661,3.75,0,0,0,0,0
1.662,2.8125,0,0,0,0,0
1.663,3.125,0,0,0,0,0
1.664,3.125,0,0,0,0,0
1.665,3.125,0,0,0,0,0
1.666,3.125,0,0,0,0,0
1.667,3.125,0,0,0,0,0
1.668,3.125,0,0,0,0,0
1.669,3.125,0,0,0,0,0
1.67,3.125,0,0,0,0,0
1.671,3.125,0,0,0,0,0
1.672,2.5,0,0,0,0,0
1.673,2.5,0,0,0,0,0
1.674,3.125,0,0,0,0,0
1.675,2.5,0,0,0,0,0
1.676,2.1875,0,0,0,0,0
1.677,1.875,0,0,0,0,0
1.678,1.875,0,0,0,0,0
1.679,1.875,0,0,0,0,0
1.68,1.875,0,0,0,0,0
1.681,1.875,0,0,0,0,0
1.682,1.5625,0,0,0,0,0
1.683,1.25,0,0,0,0,0
1.684,1.25,0,0,0,0,0
1.685,1.25,0,0,0,0,0
1.686,1.5625,0,0,0,0,0
1.687,1.875,0,0,0,0,0
1.688,1.875,0,0,0,0,0
1.689,1.875,0,0,0,0,0
1.69,1.875,0,0,0,0,0
1.691,1.875,0,0,0,0,0
1.692,1.875,0,0,0,0,0
1.693,1.875,0,0,0,0,0
1.694,1.875,0,0,0,0,0
1.695,1.875,0,0,0,0,0
1.696,1.5625,0,0,0,0,0
1.697,1.25,0,0,0,0,0
1.698,1.25,0,0,0,0,0
1.699,1.25,0,0,0,0,0
1.7,1.25,0,0,0,0,0
1.701,1.25,0,0,0,0,0
1.702,1.875,0,0,0,0,0
1.703,2.5,0,0,0,0,0
1.704,1.875,0,0,0,0,0
1.705,1.875,0,0,0,0,0
1.706,2.8125,0,0,0,0,0
1.707,2.5,0,0,0,0,0
1.708,2.1875,0,0,0,0,0
1.709,1.875,0,0,0,0,0
1.71,2.1875,0,0,0,0,0
1.711,2.5,0,0,0,0,0
1.712,2.1875,0,0,0,0,0
1.713,1.875,0,0,0,0,0
1.714,2.1875,0,0,0,0,0
1.715,2.5,0,0,0,0,0
1.716,2.1875,0,0,0,0,0
1.717,1.875,0,0,0,0,0
1.718,1.875,0,0,0,0,0
1.719,1.875,0,0,0,0,0
1.72,1.5625,0,0,0,0,0
1.721,1.25,0,0,0,0,0
1.722,1.25,0,0,0,0,0
1.723,1.25,0,0,0,0,0
1.724,1.25,0,0,0,0,0
1.725,1.875,0,0,0,0,0
1.726,1.25,0,0,0,0,0
1.727,1.875,0,0,0,0,0
1.728,1.5625,0,0,0,0,0
1.729,1.25,0,0,0,0,0
1.73,2.1875,0,0,0,0,0
1.731,2.5,0,0,0,0,0
1.732,2.5,0,0,0,0,0
1.733,2.5,0,0,0,0,0
1.734,2.1875,0,0,0,0,0
1.735,2.5,0,0,0,0,0
1.736,2.5,0,0,0,0,0
1.737,2.5,0,0,0,0,0
1.738,3.125,0,0,0,0,0
1.739,3.125,0,0,0,0,0
1.74,3.4375,0,0,0,0,0
1.741,3.75,0,0,0,0,0
1.742,3.75,0,0,0,0,0
1.743,4.375,0,0,0,0,0
1.744,4.375,0,0,0,0,0
1.745,4.375,0,0,0,0,0
1.746,4.375,0,0,0,0,0
1.747,4.375,0,0,0,0,0
1.748,4.6875,0,0,0,0,0
1.749,5.625,0,0,0,0,0
1.75,5.625,0,0,0,0,0
1.751,6.25,0,0,0,0,0
1.752,5.625,0,0,0,0,0
1.753,5.625,0,0,0,0,0
1.754,5.625,0,0,0,0,0
1.755,5.625,0,0,0,0,0
1.756,5.9375,0,0,0,0,0
1.757,6.25,0,0,0,0,0
1.758,6.25,0,0,0,0,0
1.759,6.25,0,0,0,0,0
1.76,6.25,0,0,0,0,0
1.761,6.25,0,0,0,0,0
1.762,7.1875,0,0,0,0,0
1.763,6.875,0,0,0,0,0
1.764,6.5625,0,0,0,0,0
1.765,6.25,0,0,0,0,0
1.766,5.625,0,0,0,0,0
1.767,5.625,0,0,0,0,0
1.768,5.9375,0,0,0,0,0
1.769,6.25,0,0,0,0,0
1.77,6.25,0,0,0,0,0
1.771,6.25,0,0,0,0,0
1.772,6.25,0,0,0,0,0
1.773,6.25,0,0,0,0,0
1.774,6.5625,0,0,0,0,0
1.775,6.875,0,0,0,0,0
1.776,6.875,0,0,0,0,0
1.777,6.875,0,0,0,0,0
1.778,6.875,0,0,0,0,0
1.779,6.875,0,0,0,0,0
1.78,6.875,0,0,0,0,0
1.781,6.875,0,0,0,0,0
1.782,6.875,0,0,0,0,0
1.783,6.25,0,0,0,0,0
1.784,6.25,0,0,0,0,0
1.785,6.25,0,0,0,0,0
1.786,6.5625,0,0,0,0,0
1.787,6.875,0,0,0,0,0
1.788,5.9375,0,0,0,0,0
1.789,5,0,0,0,0,0
1.79,4.375,0,0,0,0,0
1.791,3.75,0,0,0,0,0
1.792,3.125,0,0,0,0,0
1.793,3.125,0,0,0,0,0
1.794,3.4375,0,0,0,0,0
1.795,3.75,0,0,0,0,0
1.796,3.4375,0,0,0,0,0
1.797,3.75,0,0,0,0,0
1.798,3.4375,0,0,0,0,0
1.799,3.125,0,0,0,0,0
1.8,2.5,0,0,0,0,0
1.801,2.5,0,0,0,0,0
1.802,2.1875,0,0,0,0,0
1.803,1.875,0,0,0,0,0
1.804,1.5625,0,0,0,0,0
1.805,1.875,0,0,0,0,0
1.806,2.1875,0,0,0,0,0
1.807,1.875,0,0,0,0,0
1.808,2.8125,0,0,0,0,0
1.809,2.5,0,0,0,0,0
1.81,2.8125,0,0,0,0,0
1.811,2.5,0,0,0,0,0
1.812,2.1875,0,0,0,0,0
1.813,1.875,0,0,0,0,0
1.814,1.875,0,0,0,0,0
1.815,1.875,0,0,0,0,0
1.816,1.5625,0,0,0,0,0
1.817,1.875,0,0,0,0,0
1.818,0.9375,0,0,0,0,0
1.819,1.25,0,0,0,0,0
1.82,1.25,0,0,0,0,0
1.821,1.25,0,0,0,0,0
1.822,1.25,0,0,0,0,0
1.823,1.25,0,0,0,0,0
1.824,0.9375,0,0,0,0,0
1.825,0.625,0,0,0,0,0
1.826,0.3125,0,0,0,0,0
1.827,0,0,0,0,0,0
1.828,0,0,0,0,0,0
1.829,0,0,0,0,0,0
1.83,0,0,0,0,0,0
1.831,0,0,0,0,0,0
1.832,0,0,0,0,0,0
1.833,0,0,0,0,0,0
1.834,-0.3125,0,0,0,0,0
1.835,-0.625,0,0,0,0,0
1.836,-0.625,0,0,0,0,0
1.837,-0.625,0,0,0,0,0
1.838,-0.625,0,0,0,0,0
1.839,0,0,0,0,0,0
1.84,-0.3125,0,0,0,0,0
1.841,0,0,0,0,0,0
1.842,-0.3125,0,0,0,0,0
1.843,0,0,0,0,0,0
1.844,0.3125,0,0,0,0,0
1.845,0,0,0,0,0,0
1.846,0.625,0,0,0,0,0
1.847,0.625,0,0,0,0,0
1.848,0.625,0,0,0,0,0
1.849,0.625,0,0,0,0,0
1.85,0.625,0,0,0,0,0
1.851,0.625,0,0,0,0,0
1.852,0.625,0,0,0,0,0
1.853,0,0,0,0,0,0
1.854,0,0,0,0,0,0
1.855,0,0,0,0,0,0
1.856,0,0,0,0,0,0
1.857,0,0,0,0,0,0
1.858,-0.3125,0,0,0,0,0
1.859,-0.625,0,0,0,0,0
1.86,-0.3125,0,0,0,0,0
1.861,-0.625,0,0,0,0,0
1.862,-0.3125,0,0,0,0,0
1.863,0,0,0,0,0,0
1.864,-0.3125,0,0,0,0,0
1.865,-1.25,0,0,0,0,0
1.866,-0.3125,0,0,0,0,0
1.867,-0.625,0,0,0,0,0
1.868,-0.3125,0,0,0,0,0
1.869,-0.625,0,0,0,0,0
1.87,-0.3125,0,0,0,0,0
1.871,0,0,0,0,0,0
1.872,0,0,0,0,0,0
1.873,0,0,0,0,0,0
1.874,0.3125,0,0,0,0,0
1.875,0.625,0,0,0,0,0
1.876,0.625,0,0,0,0,0
1.877,0.625,0,0,0,0,0
1.878,0.625,0,0,0,0,0
1.879,0.625,0,0,0,0,0
1.88,0,0,0,0,0,0
1.881,-1.25,0,0,0,0,0
1.882,-0.9375,0,0,0,0,0
1.883,-1.25,0,0,0,0,0
1.884,-0.9375,0,0,0,0,0
1.885,-0.625,0,0,0,0,0
1.886,0,0,0,0,0,0
1.887,0,0,0,0,0,0
1.888,0,0,0,0,0,0
1.889,0,0,0,0,0,0
1.89,0,0,0,0,0,0
1.891,0,0,0,0,0,0
1.892,0.625,0,0,0,0,0
1.893,0.625,0,0,0,0,0
1.894,0.9375,0,0,0,0,0
1.895,0.625,0,0,0,0,0
1.896,0.625,0,0,0,0,0
1.897,0.625,1,0,0,0,0
1.898,0.625,0,0,0,0,0
1.899,0.625,0,0,0,0,0
1.9,0.3125,0,0,0,0,0
1.901,0,0,0,0,0,0
1.902,0.625,0,0,0,0,0
1.903,0,0,0,0,0,0
1.904,0,0,0,0,0,0
1.905,0,0,0,0,0,0
1.906,0,0,0,0,0,0
1.907,0,0,0,0,0,0
1.908,0,0,0,0,0,0
1.909,0,0,0,0,0,0
1.91,-0.3125,0,0,0,0,0
1.911,0,0,0,0,0,0
1.912,0.3125,0,0,0,0,0
1.913,0.625,0,0,0,0,0
1.914,0.625,0,0,0,0,0
1.915,1.25,0,0,0,0,0
1.916,1.5625,0,0,0,0,0
1.917,2.5,0,0,0,0,0
1.918,4.0625,0,0,0,0,0
1.919,5.625,0,0,0,0,0
1.92,7.5,0,0,0,0,0
1.921,8.125,0,0,0,0,0
1.922,8.75,0,0,0,0,0
1.923,9.375,0,0,0,0,0
1.924,11.25,0,0,0,0,0
1.925,12.5,0,0,0,0,0
1.926,15,0,0,0,0,0
1.927,16.25,0,0,0,0,0
1.928,16.875,0,0,0,0,0
1.929,18.125,0,0,0,0,0
1.93,19.063,0,0,0,0,0
1.931,20.625,0,0,0,0,0
1.932,21.563,0,0,0,0,0
1.933,23.125,0,0,0,0,0
1.934,24.688,0,1,0,0,0
1.935,26.875,0,0,0,0,0
1.936,30.313,0,0,0,0,0
1.937,33.125,0,0,0,0,0
1.938,35.938,0,0,0,0,0
1.939,36.875,0,0,0,0,0
1.94,37.813,0,0,0,0,0
1.941,38.125,0,0,0,0,0
1.942,38.438,0,0,0,0,0
1.943,37.5,0,0,0,0,0
1.944,35.313,0,0,0,0,0
1.945,33.75,0,0,0,0,0
1.946,31.875,0,0,0,0,0
1.947,31.25,0,0,0,0,0
1.948,29.375,0,0,0,0,0
1.949,26.875,0,0,0,0,0
1.95,24.688,0,0,0,0,0
1.951,22.5,0,0,0,0,0
1.952,19.688,0,0,0,0,0
1.953,16.25,0,0,0,0,0
1.954,12.188,0,0,0,0,0
1.955,8.125,0,0,0,0,0
1.956,2.8125,0,0,0,0,0
1.957,-3.75,0,0,0,0,0
1.958,-11.563,0,0,0,0,0
1.959,-18.125,0,0,0,0,0
1.96,-23.438,0,0,0,0,0
1.961,-27.5,0,0,0,0,0
1.962,-30,0,0,0,0,0
1.963,-31.875,0,0,0,0,0
1.964,-32.188,0,0,0,0,0
1.965,-32.5,0,0,0,0,0
1.966,-31.563,0,0,0,0,0
1.967,-30,0,0,0,0,0
1.968,-26.563,0,0,0,0,0
1.969,-23.125,0,0,0,0,0
1.97,-19.375,0,0,0,0,0
1.971,-16.25,0,0,0,0,0
1.972,-15.313,0,0,0,0,0
1.973,-13.75,0,0,0,0,0
1.974,-12.813,0,0,0,0,0
1.975,-11.25,0,0,0,0,0
1.976,-9.6875,0,0,0,0,0
1.977,-8.75,0,0,0,0,0
1.978,-5.9375,0,0,0,0,0
1.979,-3.75,0,0,0,0,0
1.98,-1.875,0,0,0,0,0
1.981,0,0,0,0,0,0
1.982,1.5625,0,0,0,0,0
1.983,2.5,0,0,0,0,0
1.984,3.4375,0,0,0,0,0
1.985,3.75,0,0,0,0,0
1.986,4.6875,0,0,0,0,0
1.987,4.375,0,0,0,0,0
1.988,4.375,0,0,0,0,0
1.989,4.375,0,0,0,0,0
1.99,3.75,0,0,0,0,0
1.991,4.375,0,0,0,0,0
1.992,4.6875,0,0,0,0,0
1.993,5,0,0,0,0,0
1.994,5,0,0,0,0,0
1.995,5,0,0,0,0,0
1.996,5,0,0,0,0,0
1.997,5,0,0,0,0,0
1.998,5.3125,0,0,0,0,0
1.999,6.25,0,0,0,0,0
2,6.5625,0,0,0,0,0
2.001,6.875,0,0,0,0,0
2.002,5.9375,0,0,0,0,0
2.003,5.625,0,0,0,0,0
2.004,5,0,0,0,0,0
2.005,5,0,0,0,0,0
2.006,5,0,0,0,0,0
2.007,4.375,0,0,0,0,0
2.008,3.75,0,0,0,0,0
2.009,3.125,0,0,0,0,0
2.01,3.4375,0,0,0,0,0
2.011,3.125,0,0,0,0,0
2.012,2.8125,0,0,0,0,0
2.013,2.5,0,0,0,0,0
2.014,1.875,0,0,0,0,0
2.015,1.875,0,0,0,0,0
2.016,1.875,0,0,0,0,0
2.017,1.25,0,0,0,0,0
2.018,0.9375,0,0,0,0,0
2.019,0,0,0,0,0,0
2.02,-0.3125,0,0,0,0,0
2.021,-0.625,0,0,0,0,0
2.022,-0.9375,0,0,0,0,0
2.023,-1.25,0,0,0,0,0
2.024,-1.875,0,0,0,0,0
2.025,-1.875,0,0,0,0,0
2.026,-2.5,0,0,0,0,0
2.027,-2.5,0,0,0,0,0
2.028,-2.8125,0,0,0,0,0
2.029,-2.5,0,0,0,0,0
2.03,-2.5,0,0,0,0,0
2.031,-2.5,0,0,0,0,0
2.032,-2.5,0,0,0,0,0
2.033,-3.125,0,0,0,0,0
2.034,-2.8125,0,0,0,0,0
2.035,-3.125,0,0,0,0,0
2.036,-3.125,0,0,0,0,0
2.037,-3.125,0,0,0,0,0
2.038,-3.4375,0,0,0,0,0
2.039,-3.75,0,0,0,0,0
2.04,-3.75,0,0,0,0,0
2.041,-3.75,0,0,0,0,0
2.042,-3.4375,0,0,0,0,0
2.043,-3.125,0,0,0,0,0
2.044,-3.75,0,0,0,0,0
2.045,-3.75,0,0,0,0,0
2.046,-3.75,0,0,0,0,0
2.047,-3.75,0,0,0,0,0
2.048,-4.0625,0,0,0,0,0
2.049,-3.75,0,0,0,0,0
2.05,-3.75,0,0,0,0,0
2.051,-3.75,0,0,0,0,0
2.052,-3.75,0,0,0,0,0
2.053,-3.125,0,0,0,0,0
2.054,-3.75,0,0,0,0,0
2.055,-3.75,0,0,0,0,0
2.056,-3.4375,0,0,0,0,0
2.057,-3.125,0,0,0,0,0
2.058,-3.125,0,0,0,0,0
2.059,-3.125,0,0,0,0,0
2.06,-3.4375,0,0,0,0,0
2.061,-3.75,0,0,0,0,0
2.062,-3.125,0,0,0,0,0
2.063,-2.5,0,0,0,0,0
2.064,-1.875,0,0,0,0,0
2.065,-1.875,0,0,0,0,0
2.066,-0.9375,0,0,0,0,0
2.067,-0.625,0,0,0,0,0
2.068,-0.3125,0,0,0,0,0
2.069,-0.625,0,0,0,0,0
2.07,-0.3125,0,0,0,0,0
2.071,-0.625,0,0,1,0,0
2.072,-0.625,0,0,0,0,0
2.073,-0.625,0,0,0,0,0
2.074,-0.625,0,0,0,0,0
2.075,-0.625,0,0,0,0,0
2.076,-0.625,0,0,0,0,0
2.077,-1.25,0,0,0,0,0
2.078,-0.625,0,0,0,0,0
2.079,-1.25,0,0,0,0,0
2.08,-0.625,0,0,0,0,0
2.081,-0.625,0,0,0,0,0
2.082,-0.625,0,0,0,0,0
2.083,-0.625,0,0,0,0,0
2.084,-1.25,0,0,0,0,0
2.085,-0.625,0,0,0,0,0
2.086,-0.625,0,0,0,0,0
2.087,-0.625,0,0,0,0,0
2.088,-0.3125,0,0,0,0,0
2.089,0,0,0,0,0,0
2.09,0,0,0,0,0,0
2.091,0,0,0,0,0,0
2.092,0,0,0,0,0,0
2.093,0,0,0,0,0,0
2.094,0,0,0,0,0,0
2.095,0,0,0,0,0,0
2.096,-0.3125,0,0,0,0,0
2.097,-0.625,0,0,0,0,0
2.098,-0.3125,0,0,0,0,0
2.099,-0.625,0,0,0,0,0
2.1,0,0,0,0,0,0
2.101,0,0,0,0,0,0
2.102,0,0,0,0,0,0
2.103,0,0,0,0,0,0
2.104,-0.9375,0,0,0,0,0
2.105,-0.625,0,0,0,0,0
2.106,-0.3125,0,0,0,0,0
2.107,0,0,0,0,0,0
2.108,-0.3125,0,0,0,0,0
2.109,0.625,0,0,0,0,0
2.11,-0.3125,0,0,0,0,0
2.111,0,0,0,0,0,0
2.112,0,0,0,0,0,0
2.113,0,0,0,0,0,0
2.114,0,0,0,0,0,0
2.115,0,0,0,0,0,0
2.116,-0.3125,0,0,0,0,0
2.117,-0.625,0,0,0,0,0
2.118,-0.3125,0,0,0,0,0
2.119,0,0,0,0,0,0
2.12,0,0,0,0,0,0
2.121,0,0,0,0,0,0
2.122,0,0,0,0,0,0
2.123,0,0,0,0,0,0
2.124,0.3125,0,0,0,0,0
2.125,0.625,0,0,0,0,0
2.126,0.625,0,0,0,0,0
2.127,0.625,0,0,0,0,0
2.128,0.3125,0,0,0,0,0
2.129,0,0,0,0,0,0
2.13,0,0,0,0,0,0
2.131,0,0,0,0,0,0
2.132,-0.3125,0,0,0,0,0
2.133,-0.625,0,0,0,0,0
2.134,-0.9375,0,0,0,0,0
2.135,-1.25,0,0,0,0,0
2.136,-0.625,0,0,0,0,0
2.137,-0.625,0,0,0,0,0
2.138,-0.625,0,0,0,0,0
2.139,-0.625,0,0,0,0,0
2.14,-0.9375,0,0,0,0,0
2.141,-1.25,0,0,0,0,0
2.142,-0.9375,0,0,0,0,0
2.143,-0.625,0,0,0,0,0
2.144,-0.3125,0,0,0,0,0
2.145,0,0,0,0,0,0
2.146,-0.9375,0,0,0,0,0
2.147,-1.25,0,0,0,0,0
2.148,-1.5625,0,0,0,0,0
2.149,-1.875,0,0,0,0,0
2.15,-2.1875,0,0,0,0,0
2.151,-2.5,0,0,0,0,0
2.152,-2.1875,0,0,0,0,0
2.153,-1.875,0,0,0,0,0
2.154,-2.1875,0,0,0,0,0
2.155,-2.5,0,0,0,0,0
2.156,-3.125,0,0,0,0,0
2.157,-3.125,0,0,0,0,0
2.158,-3.125,0,0,0,0,0
2.159,-3.125,0,0,0,0,0
2.16,-3.125,0,0,0,0,0
2.161,-3.125,0,0,0,0,0
2.162,-3.4375,0,0,0,0,0
2.163,-3.75,0,0,0,0,0
2.164,-3.125,0,0,0,0,0
2.165,-3.125,0,0,0,0,0
2.166,-3.4375,0,0,0,0,0
2.167,-3.125,0,0,0,0,0
2.168,-3.125,0,0,0,0,0
2.169,-3.125,0,0,0,0,0
2.17,-2.8125,0,0,0,0,0
2.171,-2.5,0,0,0,0,0
2.172,-3.4375,0,0,0,0,0
2.173,-3.75,0,0,0,0,0
2.174,-3.75,0,0,0,0,0
2.175,-3.75,0,0,0,0,0
2.176,-3.4375,0,0,0,0,0
2.177,-3.75,0,0,0,0,0
2.178,-4.0625,0,0,0,0,0
2.179,-4.375,0,0,0,0,0
2.18,-5,0,0,0,0,0
2.181,-4.375,0,0,0,0,0
2.182,-5,0,0,0,0,0
2.183,-5,0,0,0,0,0
2.184,-4.6875,0,0,0,0,0
2.185,-5,0,0,0,0,0
2.186,-5,0,0,0,0,0
2.187,-5,0,0,0,0,0
2.188,-5.9375,0,0,0,0,0
2.189,-6.25,0,0,0,0,0
2.19,-5.9375,0,0,0,0,0
2.191,-6.25,0,0,0,0,0
2.192,-6.25,0,0,0,0,0
2.193,-6.25,0,0,0,0,0
2.194,-6.25,0,0,0,0,0
2.195,-6.25,0,0,0,0,0
2.196,-7.1875,0,0,0,0,0
2.197,-7.5,0,0,0,0,0
2.198,-6.875,0,0,0,0,0
2.199,-6.875,0,0,0,0,0
2.2,-6.875,0,0,0,0,0
2.201,-6.875,0,0,0,0,0
2.202,-7.5,0,0,0,0,0
2.203,-7.5,0,0,0,0,0
2.204,-7.8125,0,0,0,0,0
2.205,-8.125,0,0,0,0,0
2.206,-8.4375,0,0,0,0,0
2.207,-8.75,0,0,0,0,0
2.208,-9.6875,0,0,0,0,0
2.209,-10,0,0,0,0,0
2.21,-10,0,0,0,0,0
2.211,-10,0,0,0,0,0
2.212,-10,0,0,0,0,0
2.213,-10,0,0,0,0,0
2.214,-10.625,0,0,0,0,0
2.215,-10.625,0,0,0,0,0
2.216,-10.625,0,0,0,0,0
2.217,-10.625,0,0,0,0,0
2.218,-10.938,0,0,0,0,0
2.219,-11.25,0,0,0,0,0
2.22,-11.25,0,0,0,0,0
2.221,-11.25,0,0,0,0,0
2.222,-11.875,0,0,0,0,0
2.223,-11.875,0,0,0,0,0
2.224,-11.875,0,0,0,0,0
2.225,-11.875,0,0,0,1,0
2.226,-11.563,0,0,0,0,0
2.227,-11.25,0,0,0,0,0
2.228,-10.938,0,0,0,0,0
2.229,-10,0,0,0,0,0
2.23,-10,0,0,0,0,0
2.231,-10,0,0,0,0,0
2.232,-10,0,0,0,0,0
2.233,-10,0,0,0,0,0
2.234,-9.6875,0,0,0,0,0
2.235,-9.375,0,0,0,0,0
2.236,-9.6875,0,0,0,0,0
2.237,-10,0,0,0,0,0
2.238,-10.313,0,0,0,0,0
2.239,-10,0,0,0,0,0
2.24,-10,0,0,0,0,0
2.241,-10,0,0,0,0,0
2.242,-9.375,0,0,0,0,0
2.243,-10,0,0,0,0,0
2.244,-9.6875,0,0,0,0,0
2.245,-10,0,0,0,0,0
2.246,-9.0625,0,0,0,0,0
2.247,-8.75,0,0,0,0,0
2.248,-9.0625,0,0,0,0,0
2.249,-9.375,0,0,0,0,0
2.25,-8.4375,0,0,0,0,0
2.251,-8.125,0,0,0,0,0
2.252,-7.1875,0,0,0,0,0
2.253,-6.875,0,0,0,0,0
2.254,-6.25,0,0,0,0,0
2.255,-6.25,0,0,0,0,0
2.256,-5.9375,0,0,0,0,0
2.257,-5.625,0,0,0,0,0
2.258,-5.3125,0,0,0,0,0
2.259,-5.625,0,0,0,0,0
2.26,-5.3125,0,0,0,0,0
2.261,-5.625,0,0,0,0,0
2.262,-4.6875,0,0,0,0,0
2.263,-4.375,0,0,0,0,0
2.264,-4.0625,0,0,0,0,0
2.265,-4.375,0,0,0,0,0
2.266,-3.125,0,0,0,0,0
2.267,-3.125,0,0,0,0,0
2.268,-2.8125,0,0,0,0,0
2.269,-3.125,0,0,0,0,0
2.27,-3.4375,0,0,0,0,0
2.271,-3.125,0,0,0,0,0
2.272,-3.125,0,0,0,0,0
2.273,-3.125,0,0,0,0,0
2.274,-2.1875,0,0,0,0,0
2.275,-1.875,0,0,0,0,0
2.276,-1.875,0,0,0,0,0
2.277,-1.25,0,0,0,0,0
2.278,-1.25,0,0,0,0,0
2.279,-0.625,0,0,0,0,0
2.28,-0.625,0,0,0,0,0
2.281,-0.625,0,0,0,0,0
2.282,0.3125,0,0,0,0,0
2.283,0.625,0,0,0,0,0
2.284,0.3125,0,0,0,0,0
2.285,0.625,0,0,0,0,0
2.286,1.25,0,0,0,0,0
2.287,1.25,0,0,0,0,0
2.288,1.25,0,0,0,0,0
2.289,1.25,0,0,0,0,0
2.29,1.875,0,0,0,0,0
2.291,1.875,0,0,0,0,0
2.292,1.5625,0,0,0,0,0
2.293,1.875,0,0,0,0,0
2.294,2.5,0,0,0,0,0
2.295,3.125,0,0,0,0,0
2.296,3.125,0,0,0,0,0
2.297,3.125,0,0,0,0,0
2.298,3.75,0,0,0,0,0
2.299,3.75,0,0,0,0,0
2.3,3.4375,0,0,0,0,0
2.301,3.75,0,0,0,0,0
2.302,3.75,0,0,0,0,0
2.303,5,0,0,0,0,0
2.304,4.375,0,0,0,0,0
2.305,5,0,0,0,0,0
2.306,4.6875,0,0,0,0,0
2.307,4.375,0,0,0,0,0
2.308,4.375,0,0,0,0,0
2.309,4.375,0,0,0,0,0
2.31,4.375,0,0,0,0,0
2.311,4.375,0,0,0,0,0
2.312,4.375,0,0,0,0,0
2.313,4.375,0,0,0,0,0
2.314,4.375,0,0,0,0,0
2.315,4.375,0,0,0,0,0
2.316,4.375,0,0,0,0,0
2.317,4.375,0,0,0,0,0
2.318,4.6875,0,0,0,0,0
2.319,5,0,0,0,0,0
2.32,4.6875,0,0,0,0,0
2.321,4.375,0,0,0,0,0
2.322,4.375,0,0,0,0,0
2.323,4.375,0,0,0,0,0
2.324,3.75,0,0,0,0,0
2.325,3.75,0,0,0,0,0
2.326,4.6875,0,0,0,0,0
2.327,4.375,0,0,0,0,0
2.328,4.6875,0,0,0,0,0
2.329,5,0,0,0,0,0
2.33,4.375,0,0,0,0,0
2.331,4.375,0,0,0,0,0
2.332,4.0625,0,0,0,0,0
2.333,4.375,0,0,0,0,0
2.334,4.375,0,0,0,0,0
2.335,4.375,0,0,0,0,0
2.336,3.4375,0,0,0,0,0
2.337,3.125,0,0,0,0,0
2.338,3.125,0,0,0,0,0
2.339,3.125,0,0,0,0,0
2.34,3.125,0,0,0,0,0
2.341,2.5,0,0,0,0,1
2.342,2.5,0,0,0,0,0
2.343,2.5,0,0,0,0,0
2.344,2.8125,0,0,0,0,0
2.345,3.125,0,0,0,0,0
2.346,3.125,0,0,0,0,0
2.347,3.125,0,0,0,0,0
2.348,3.125,0,0,0,0,0
2.349,3.125,0,0,0,0,0
2.35,2.8125,0,0,0,0,0
2.351,2.5,0,0,0,0,0
2.352,2.5,0,0,0,0,0
2.353,2.5,0,0,0,0,0
2.354,2.1875,0,0,0,0,0
2.355,1.875,0,0,0,0,0
2.356,2.1875,0,0,0,0,0
2.357,2.5,0,0,0,0,0
2.358,2.1875,0,0,0,0,0
2.359,1.875,0,0,0,0,0
2.36,2.5,0,0,0,0,0
2.361,1.875,0,0,0,0,0
2.362,2.1875,0,0,0,0,0
2.363,2.5,0,0,0,0,0
2.364,2.5,0,0,0,0,0
2.365,2.5,0,0,0,0,0
2.366,2.8125,0,0,0,0,0
2.367,3.125,0,0,0,0,0
2.368,2.8125,0,0,0,0,0
2.369,2.5,0,0,0,0,0
2.37,2.5,0,0,0,0,0
2.371,2.5,0,0,0,0,0
2.372,2.8125,0,0,0,0,0
2.373,3.125,0,0,0,0,0
2.374,2.5,0,0,0,0,0
2.375,1.875,0,0,0,0,0
2.376,1.5625,0,0,0,0,0
2.377,1.25,0,0,0,0,0
2.378,1.5625,0,0,0,0,0
2.379,1.875,0,0,0,0,0
2.38,1.875,0,0,0,0,0
2.381,2.5,0,0,0,0,0
2.382,2.8125,0,0,0,0,0
2.383,2.5,0,0,0,0,0
2.384,2.5,0,0,0,0,0
2.385,2.5,0,0,0,0,0
2.386,2.8125,0,0,0,0,0
2.387,2.5,0,0,0,0,0
2.388,1.875,0,0,0,0,0
2.389,1.875,0,0,0,0,0
2.39,2.1875,0,0,0,0,0
2.391,1.875,0,0,0,0,0
2.392,2.8125,0,0,0,0,0
2.393,2.5,0,0,0,0,0
2.394,2.5,0,0,0,0,0
2.395,2.5,0,0,0,0,0
2.396,2.8125,0,0,0,0,0
2.397,3.125,0,0,0,0,0
2.398,3.125,0,0,0,0,0
2.399,3.125,0,0,0,0,0
2.4,3.125,0,0,0,0,0
2.401,2.5,0,0,0,0,0
2.402,2.8125,0,0,0,0,0
2.403,3.125,0,0,0,0,0
2.404,2.8125,0,0,0,0,0
2.405,2.5,0,0,0,0,0
2.406,2.5,0,0,0,0,0
2.407,2.5,0,0,0,0,0
2.408,2.5,0,0,0,0,0
2.409,2.5,0,0,0,0,0
2.41,2.8125,0,0,0,0,0
2.411,2.5,0,0,0,0,0
2.412,1.875,0,0,0,0,0
2.413,2.5,0,0,0,0,0
2.414,2.8125,0,0,0,0,0
2.415,2.5,0,0,0,0,0
2.416,2.1875,0,0,0,0,0
2.417,1.875,0,0,0,0,0
2.418,1.875,0,0,0,0,0
2.419,1.875,0,0,0,0,0
2.42,1.875,0,0,0,0,0
2.421,1.875,0,0,0,0,0
2.422,2.1875,0,0,0,0,0
2.423,2.5,0,0,0,0,0
2.424,2.5,0,0,0,0,0
2.425,2.5,0,0,0,0,0
2.426,2.5,0,0,0,0,0
2.427,2.5,0,0,0,0,0
2.428,2.5,0,0,0,0,0
2.429,2.5,0,0,0,0,0
2.43,2.5,0,0,0,0,0
2.431,2.5,0,0,0,0,0
2.432,2.1875,0,0,0,0,0
2.433,1.875,0,0,0,0,0
2.434,1.5625,0,0,0,0,0
2.435,1.25,0,0,0,0,0
2.436,1.25,0,0,0,0,0
2.437,1.25,0,0,0,0,0
2.438,1.5625,0,0,0,0,0
2.439,1.875,0,0,0,0,0
2.44,2.1875,0,0,0,0,0
2.441,2.5,0,0,0,0,0
2.442,2.5,0,0,0,0,0
2.443,2.5,0,0,0,0,0
2.444,2.5,0,0,0,0,0
2.445,1.875,0,0,0,0,0
2.446,2.1875,0,0,0,0,0
2.447,1.875,0,0,0,0,0
2.448,1.875,0,0,0,0,0
2.449,1.875,0,0,0,0,0
2.45,1.875,0,0,0,0,0
2.451,1.875,0,0,0,0,0
2.452,1.5625,0,0,0,0,0
2.453,1.25,0,0,0,0,0
2.454,1.5625,0,0,0,0,0
2.455,1.875,0,0,0,0,0
2.456,2.1875,0,0,0,0,0
2.457,1.875,0,0,0,0,0
2.458,2.1875,0,0,0,0,0
2.459,1.875,0,0,0,0,0
2.46,1.5625,0,0,0,0,0
2.461,1.25,0,0,0,0,0
2.462,1.5625,0,0,0,0,0
2.463,1.875,0,0,0,0,0
2.464,1.5625,0,0,0,0,0
2.465,1.25,0,0,0,0,0
2.466,1.25,0,0,0,0,0
2.467,0.625,0,0,0,0,0
2.468,0.9375,0,0,0,0,0
2.469,1.875,0,0,0,0,0
2.47,1.5625,0,0,0,0,0
2.471,1.875,0,0,0,0,0
2.472,1.5625,0,0,0,0,0
2.473,1.25,0,0,0,0,0
2.474,1.5625,0,0,0,0,0
2.475,1.875,0,0,0,0,0
2.476,1.5625,0,0,0,0,0
2.477,1.25,0,0,0,0,0
2.478,0.9375,0,0,0,0,0
2.479,0.625,0,0,0,0,0
2.48,0.9375,0,0,0,0,0
2.481,1.25,0,0,0,0,0
2.482,0.9375,0,0,0,0,0
2.483,0.625,0,0,0,0,0
2.484,0.3125,0,0,0,0,0
2.485,0,0,0,0,0,0
2.486,0,0,0,0,0,0
2.487,0,0,0,0,0,0
2.488,0.3125,0,0,0,0,0
2.489,0.625,0,0,0,0,0
2.49,0.9375,0,0,0,0,0
2.491,1.25,0,0,0,0,0
2.492,1.25,0,0,0,0,0
2.493,1.25,0,0,0,0,0
2.494,0.9375,0,0,0,0,0
2.495,0.625,0,0,0,0,0
2.496,0.9375,0,0,0,0,0
2.497,1.25,0,0,0,0,0
2.498,1.875,0,0,0,0,0
2.499,1.875,0,0,0,0,0
2.5,1.875,0,0,0,0,0
2.501,2.5,0,0,0,0,0
2.502,2.1875,0,0,0,0,0
2.503,2.5,0,0,0,0,0
2.504,2.5,0,0,0,0,0
2.505,2.5,0,0,0,0,0
2.506,1.875,0,0,0,0,0
2.507,1.25,0,0,0,0,0
2.508,1.875,0,0,0,0,0
2.509,1.25,0,0,0,0,0
2.51,1.875,0,0,0,0,0
2.511,1.875,0,0,0,0,0
2.512,1.5625,0,0,0,0,0
2.513,1.25,0,0,0,0,0
2.514,0.9375,0,0,0,0,0
2.515,1.25,0,0,0,0,0
2.516,0.625,0,0,0,0,0
2.517,1.25,0,0,0,0,0
2.518,0.9375,0,0,0,0,0
2.519,0.625,0,0,0,0,0
2.52,1.25,0,0,0,0,0
2.521,1.25,0,0,0,0,0
2.522,0.625,0,0,0,0,0
2.523,1.25,0,0,0,0,0
2.524,1.5625,0,0,0,0,0
2.525,1.875,0,0,0,0,0
2.526,2.1875,0,0,0,0,0
2.527,3.125,0,0,0,0,0
2.528,2.8125,0,0,0,0,0
2.529,2.5,0,0,0,0,0
2.53,2.5,0,0,0,0,0
2.531,2.5,0,0,0,0,0
2.532,3.4375,0,0,0,0,0
2.533,3.75,0,0,0,0,0
2.534,4.0625,0,0,0,0,0
2.535,4.375,0,0,0,0,0
2.536,4.375,0,0,0,0,0
2.537,4.375,0,0,0,0,0
2.538,4.375,0,0,0,0,0
2.539,4.375,0,0,0,0,0
2.54,4.375,0,0,0,0,0
2.541,4.375,0,0,0,0,0
2.542,4.375,0,0,0,0,0
2.543,4.375,0,0,0,0,0
2.544,4.375,0,0,0,0,0
2.545,4.375,0,0,0,0,0
2.546,4.6875,0,0,0,0,0
2.547,5,0,0,0,0,0
2.548,5,0,0,0,0,0
2.549,5,0,0,0,0,0
2.55,5,0,0,0,0,0
2.551,5,0,0,0,0,0
2.552,5,0,0,0,0,0
2.553,5,0,0,0,0,0
2.554,5,0,0,0,0,0
2.555,5,0,0,0,0,0
2.556,5,0,0,0,0,0
2.557,5,0,0,0,0,0
2.558,5,0,0,0,0,0
2.559,5,0,0,0,0,0
2.56,5,0,0,0,0,0
2.561,5,0,0,0,0,0
2.562,4.6875,0,0,0,0,0
2.563,4.375,0,0,0,0,0
2.564,5,0,0,0,0,0
2.565,5.625,0,0,0,0,0
2.566,5.3125,0,0,0,0,0
2.567,5,0,0,0,0,0
2.568,5,0,0,0,0,0
2.569,5,0,0,0,0,0
2.57,4.6875,0,0,0,0,0
2.571,4.375,0,0,0,0,0
2.572,4.375,0,0,0,0,0
2.573,4.375,0,0,0,0,0
2.574,4.0625,0,0,0,0,0
2.575,3.75,0,0,0,0,0
2.576,3.75,0,0,0,0,0
2.577,3.75,0,0,0,0,0
2.578,3.4375,0,0,0,0,0
2.579,3.125,0,0,0,0,0
2.58,3.4375,0,0,0,0,0
2.581,3.75,0,0,0,0,0
2.582,3.4375,0,0,0,0,0
2.583,3.125,0,0,0,0,0
2.584,3.125,0,0,0,0,0
2.585,3.125,0,0,0,0,0
2.586,3.125,0,0,0,0,0
2.587,3.125,0,0,0,0,0
2.588,2.8125,0,0,0,0,0
2.589,2.5,0,0,0,0,0
2.59,2.1875,0,0,0,0,0
2.591,1.875,0,0,0,0,0
2.592,1.5625,0,0,0,0,0
2.593,1.25,0,0,0,0,0
2.594,0.9375,0,0,0,0,0
2.595,0.625,0,0,0,0,0
2.596,0.3125,0,0,0,0,0
2.597,0,0,0,0,0,0
2.598,0.3125,0,0,0,0,0
2.599,0.625,0,0,0,0,0
2.6,0.625,0,0,0,0,0
2.601,0.625,0,0,0,0,0
2.602,0.3125,0,0,0,0,0
2.603,0,0,0,0,0,0
2.604,0,0,0,0,0,0
2.605,0,0,0,0,0,0
2.606,0.3125,0,0,0,0,0
2.607,0.625,0,0,0,0,0
2.608,0.9375,0,0,0,0,0
2.609,1.25,0,0,0,0,0
2.61,0.9375,0,0,0,0,0
2.611,0.625,0,0,0,0,0
2.612,0.3125,0,0,0,0,0
2.613,0,0,0,0,0,0
2.614,-0.3125,0,0,0,0,0
2.615,-0.625,0,0,0,0,0
2.616,-0.3125,0,0,0,0,0
2.617,0,0,0,0,0,0
2.618,0,0,0,0,0,0
2.619,0,0,0,0,0,0
2.62,-0.3125,0,0,0,0,0
2.621,-0.625,0,0,0,0,0
2.622,-0.625,0,0,0,0,0
2.623,-0.625,0,0,0,0,0
2.624,-0.625,0,0,0,0,0
2.625,-0.625,0,0,0,0,0
2.626,-0.625,0,0,0,0,0
2.627,-0.625,0,0,0,0,0
2.628,-0.625,0,0,0,0,0
2.629,-0.625,0,0,0,0,0
2.63,-0.9375,0,0,0,0,0
2.631,-1.25,0,0,0,0,0
2.632,-1.25,0,0,0,0,0
2.633,-1.25,0,0,0,0,0
2.634,-0.9375,0,0,0,0,0
2.635,-0.625,0,0,0,0,0
2.636,-0.3125,0,0,0,0,0
2.637,0,0,0,0,0,0
2.638,0.3125,0,0,0,0,0
2.639,0.625,0,0,0,0,0
2.64,0.3125,0,0,0,0,0
2.641,0,0,0,0,0,0
2.642,-0.3125,0,0,0,0,0
2.643,-0.625,0,0,0,0,0
2.644,-0.625,0,0,0,0,0
2.645,-0.625,0,0,0,0,0
2.646,-0.9375,0,0,0,0,0
2.647,-1.25,0,0,0,0,0
2.648,-1.25,0,0,0,0,0
2.649,-1.25,0,0,0,0,0
2.65,-1.25,0,0,0,0,0
2.651,-1.25,0,0,0,0,0
2.652,-1.25,0,0,0,0,0
2.653,-1.25,0,0,0,0,0
2.654,-0.625,0,0,0,0,0
2.655,0,0,0,0,0,0
2.656,0,0,0,0,0,0
2.657,0,0,0,0,0,0
2.658,0,0,0,0,0,0
2.659,0,0,0,0,0,0
2.66,-0.3125,0,0,0,0,0
2.661,-0.625,0,0,0,0,0
2.662,-0.3125,0,0,0,0,0
2.663,0,0,0,0,0,0
2.664,0,0,0,0,0,0
2.665,0,0,0,0,0,0
2.666,0,0,0,0,0,0
2.667,0,0,0,0,0,0
2.668,-0.3125,0,0,0,0,0
2.669,-0.625,0,0,0,0,0
2.67,-0.625,0,0,0,0,0
2.671,-0.625,0,0,0,0,0
2.672,-0.3125,0,0,0,0,0
2.673,0,0,0,0,0,0
2.674,-0.3125,0,0,0,0,0
2.675,-0.625,0,0,0,0,0
2.676,0,0,0,0,0,0
2.677,0.625,0,0,0,0,0
2.678,0.625,0,0,0,0,0
2.679,0.625,1,0,0,0,0
2.68,0.625,0,0,0,0,0
2.681,0.625,0,0,0,0,0
2.682,0.625,0,0,0,0,0
2.683,0.625,0,0,0,0,0
2.684,0.3125,0,0,0,0,0
2.685,0,0,0,0,0,0
2.686,0,0,0,0,0,0
2.687,0,0,0,0,0,0
2.688,-0.3125,0,0,0,0,0
2.689,-0.625,0,0,0,0,0
2.69,-0.625,0,0,0,0,0
2.691,-0.625,0,0,0,0,0
2.692,-0.9375,0,0,0,0,0
2.693,-1.25,0,0,0,0,0
2.694,-1.25,0,0,0,0,0
2.695,-1.25,0,0,0,0,0
2.696,-0.9375,0,0,0,0,0
2.697,-0.625,0,0,0,0,0
2.698,-0.3125,0,0,0,0,0
2.699,0,0,0,0,0,0
2.7,0.3125,0,0,0,0,0
2.701,0.625,0,0,0,0,0
2.702,1.25,0,0,0,0,0
2.703,1.875,0,0,0,0,0
2.704,2.5,0,0,0,0,0
2.705,3.125,0,0,0,0,0
2.706,3.75,0,0,0,0,0
2.707,4.375,0,0,0,0,0
2.708,5.3125,0,0,0,0,0
2.709,6.25,0,0,0,0,0
2.71,7.1875,0,0,0,0,0
2.711,8.125,0,0,0,0,0
2.712,8.75,0,0,0,0,0
2.713,9.375,0,0,0,0,0
2.714,10.625,0,0,0,0,0
2.715,11.875,0,0,0,0,0
2.716,13.125,0,0,0,0,0
2.717,14.375,0,0,0,0,0
2.718,15.313,0,0,0,0,0
2.719,16.25,0,0,0,0,0
2.72,17.5,0,0,0,0,0
2.721,18.75,0,0,0,0,0
2.722,20.313,0,0,0,0,0
2.723,21.875,0,0,0,0,0
2.724,24.063,0,0,0,0,0
2.725,26.25,0,0,0,0,0
2.726,29.063,0,0,0,0,0
2.727,31.875,0,0,0,0,0
2.728,33.438,0,0,0,0,0
2.729,35,0,0,0,0,0
2.73,35.625,0,0,0,0,0
2.731,36.25,0,0,0,0,0
2.732,36.25,0,1,0,0,0
2.733,36.25,0,0,0,0,0
2.734,34.375,0,0,0,0,0
2.735,32.5,0,0,0,0,0
2.736,30.938,0,0,0,0,0
2.737,29.375,0,0,0,0,0
2.738,27.5,0,0,0,0,0
2.739,25.625,0,0,0,0,0
2.74,23.438,0,0,0,0,0
2.741,21.25,0,0,0,0,0
2.742,18.125,0,0,0,0,0
2.743,15,0,0,0,0,0
2.744,10.625,0,0,0,0,0
2.745,6.25,0,0,0,0,0
2.746,1.25,0,0,0,0,0
2.747,-3.75,0,0,0,0,0
2.748,-10.625,0,0,0,0,0
2.749,-17.5,0,0,0,0,0
2.75,-21.875,0,0,0,0,0
2.751,-26.25,0,0,0,0,0
2.752,-29.063,0,0,0,0,0
2.753,-31.875,0,0,0,0,0
2.754,-31.875,0,0,0,0,0
2.755,-31.875,0,0,0,0,0
2.756,-30.938,0,0,0,0,0
2.757,-30,0,0,0,0,0
2.758,-26.563,0,0,0,0,0
2.759,-23.125,0,0,0,0,0
2.76,-20.313,0,0,0,0,0
2.761,-17.5,0,0,0,0,0
2.762,-15.938,0,0,0,0,0
2.763,-14.375,0,0,0,0,0
2.764,-13.125,0,0,0,0,0
2.765,-11.875,0,0,0,0,0
2.766,-9.6875,0,0,0,0,0
2.767,-7.5,0,0,0,0,0
2.768,-5.625,0,0,0,0,0
2.769,-3.75,0,0,0,0,0
2.77,-2.1875,0,0,0,0,0
2.771,-0.625,0,0,0,0,0
2.772,0,0,0,0,0,0
2.773,0.625,0,0,0,0,0
2.774,1.875,0,0,0,0,0
2.775,3.125,0,0,0,0,0
2.776,4.0625,0,0,0,0,0
2.777,5,0,0,0,0,0
2.778,5.3125,0,0,0,0,0
2.779,5.625,0,0,0,0,0
2.78,5.9375,0,0,0,0,0
2.781,6.25,0,0,0,0,0
2.782,6.25,0,0,0,0,0
2.783,6.25,0,0,0,0,0
2.784,6.25,0,0,0,0,0
2.785,6.25,0,0,0,0,0
2.786,6.25,0,0,0,0,0
2.787,6.25,0,0,0,0,0
2.788,6.25,0,0,0,0,0
2.789,6.25,0,0,0,0,0
2.79,5.625,0,0,0,0,0
2.791,5,0,0,0,0,0
2.792,5,0,0,0,0,0
2.793,5,0,0,0,0,0
2.794,5,0,0,0,0,0
2.795,5,0,0,0,0,0
2.796,5,0,0,0,0,0
2.797,5,0,0,0,0,0
2.798,5,0,0,0,0,0
2.799,5,0,0,0,0,0
2.8,4.0625,0,0,0,0,0
2.801,3.125,0,0,0,0,0
2.802,3.125,0,0,0,0,0
2.803,3.125,0,0,0,0,0
2.804,2.8125,0,0,0,0,0
2.805,2.5,0,0,0,0,0
2.806,2.5,0,0,0,0,0
2.807,2.5,0,0,0,0,0
2.808,2.1875,0,0,0,0,0
2.809,1.875,0,0,0,0,0
2.81,1.875,0,0,0,0,0
2.811,1.875,0,0,0,0,0
2.812,1.25,0,0,0,0,0
2.813,0.625,0,0,0,0,0
2.814,0.3125,0,0,0,0,0
2.815,0,0,0,0,0,0
2.816,-0.625,0,0,0,0,0
2.817,-1.25,0,0,0,0,0
2.818,-1.25,0,0,0,0,0
2.819,-1.25,0,0,0,0,0
2.82,-0.9375,0,0,0,0,0
2.821,-0.625,0,0,0,0,0
2.822,-0.625,0,0,0,0,0
2.823,-0.625,0,0,0,0,0
2.824,-0.9375,0,0,0,0,0
2.825,-1.25,0,0,0,0,0
2.826,-1.875,0,0,0,0,0
2.827,-2.5,0,0,0,0,0
2.828,-3.125,0,0,0,0,0
2.829,-3.75,0,0,0,0,0
2.83,-3.75,0,0,0,0,0
2.831,-3.75,0,0,0,0,0
2.832,-3.75,0,0,0,0,0
2.833,-3.75,0,0,0,0,0
2.834,-3.75,0,0,0,0,0
2.835,-3.75,0,0,0,0,0
2.836,-3.4375,0,0,0,0,0
2.837,-3.125,0,0,0,0,0
2.838,-3.125,0,0,0,0,0
2.839,-3.125,0,0,0,0,0
2.84,-3.4375,0,0,0,0,0
2.841,-3.75,0,0,0,0,0
2.842,-3.75,0,0,0,0,0
2.843,-3.75,0,0,0,0,0
2.844,-3.4375,0,0,0,0,0
2.845,-3.125,0,0,0,0,0
2.846,-2.5,0,0,0,0,0
2.847,-1.875,0,0,0,0,0
2.848,-1.5625,0,0,0,0,0
2.849,-1.25,0,0,0,0,0
2.85,-1.5625,0,0,0,0,0
2.851,-1.875,0,0,0,0,0
2.852,-1.875,0,0,0,0,0
2.853,-1.875,0,0,0,0,0
2.854,-1.875,0,0,0,0,0
2.855,-1.875,0,0,0,0,0
2.856,-2.1875,0,0,0,0,0
2.857,-2.5,0,0,0,0,0
2.858,-2.1875,0,0,0,0,0
2.859,-1.875,0,0,0,0,0
2.86,-1.875,0,0,0,0,0
2.861,-1.875,0,0,0,0,0
2.862,-1.5625,0,0,0,0,0
2.863,-1.25,0,0,0,0,0
2.864,-1.25,0,0,0,0,0
2.865,-1.25,0,0,0,0,0
2.866,-0.9375,0,0,0,0,0
2.867,-0.625,0,0,0,0,0
2.868,-0.625,0,0,0,0,0
2.869,-0.625,0,0,1,0,0
2.87,-0.3125,0,0,0,0,0
2.871,0,0,0,0,0,0
2.872,0,0,0,0,0,0
2.873,0,0,0,0,0,0
2.874,0,0,0,0,0,0
2.875,0,0,0,0,0,0
2.876,0,0,0,0,0,0
2.877,0,0,0,0,0,0
2.878,0,0,0,0,0,0
2.879,0,0,0,0,0,0
2.88,-0.3125,0,0,0,0,0
2.881,-0.625,0,0,0,0,0
2.882,-0.625,0,0,0,0,0
2.883,-0.625,0,0,0,0,0
2.884,-0.625,0,0,0,0,0
2.885,-0.625,0,0,0,0,0
2.886,-0.625,0,0,0,0,0
2.887,-0.625,0,0,0,0,0
2.888,-0.9375,0,0,0,0,0
2.889,-1.25,0,0,0,0,0
2.89,-1.25,0,0,0,0,0
2.891,-1.25,0,0,0,0,0
2.892,-0.9375,0,0,0,0,0
2.893,-0.625,0,0,0,0,0
2.894,-0.3125,0,0,0,0,0
2.895,0,0,0,0,0,0
2.896,-0.3125,0,0,0,0,0
2.897,-0.625,0,0,0,0,0
2.898,-0.625,0,0,0,0,0
2.899,-0.625,0,0,0,0,0
2.9,-0.625,0,0,0,0,0
2.901,-0.625,0,0,0,0,0
2.902,-0.9375,0,0,0,0,0
2.903,-1.25,0,0,0,0,0
2.904,-0.9375,0,0,0,0,0
2.905,-0.625,0,0,0,0,0
2.906,-0.625,0,0,0,0,0
2.907,-0.625,0,0,0,0,0
2.908,-0.625,0,0,0,0,0
2.909,-0.625,0,0,0,0,0
2.91,-0.9375,0,0,0,0,0
2.911,-1.25,0,0,0,0,0
2.912,-1.25,0,0,0,0,0
2.913,-1.25,0,0,0,0,0
2.914,-1.5625,0,0,0,0,0
2.915,-1.875,0,0,0,0,0
2.916,-1.875,0,0,0,0,0
2.917,-1.875,0,0,0,0,0
2.918,-1.5625,0,0,0,0,0
2.919,-1.25,0,0,0,0,0
2.92,-1.25,0,0,0,0,0
2.921,-1.25,0,0,0,0,0
2.922,-0.9375,0,0,0,0,0
2.923,-0.625,0,0,0,0,0
2.924,-0.3125,0,0,0,0,0
2.925,0,0,0,0,0,0
2.926,0,0,0,0,0,0
2.927,0,0,0,0,0,0
2.928,0,0,0,0,0,0
2.929,0,0,0,0,0,0
2.93,0,0,0,0,0,0
2.931,0,0,0,0,0,0
2.932,0,0,0,0,0,0
2.933,0,0,0,0,0,0
2.934,-0.3125,0,0,0,0,0
2.935,-0.625,0,0,0,0,0
2.936,-0.625,0,0,0,0,0
2.937,-0.625,0,0,0,0,0
2.938,-0.9375,0,0,0,0,0
2.939,-1.25,0,0,0,0,0
2.94,-1.5625,0,0,0,0,0
2.941,-1.875,0,0,0,0,0
2.942,-2.1875,0,0,0,0,0
2.943,-2.5,0,0,0,0,0
2.944,-2.1875,0,0,0,0,0
2.945,-1.875,0,0,0,0,0
2.946,-1.875,0,0,0,0,0
2.947,-1.875,0,0,0,0,0
2.948,-1.875,0,0,0,0,0
2.949,-1.875,0,0,0,0,0
2.95,-1.5625,0,0,0,0,0
2.951,-1.25,0,0,0,0,0
2.952,-1.875,0,0,0,0,0
2.953,-2.5,0,0,0,0,0
2.954,-2.5,0,0,0,0,0
2.955,-2.5,0,0,0,0,0
2.956,-2.5,0,0,0,0,0
2.957,-2.5,0,0,0,0,0
2.958,-2.1875,0,0,0,0,0
2.959,-1.875,0,0,0,0,0
2.96,-2.1875,0,0,0,0,0
2.961,-2.5,0,0,0,0,0
2.962,-2.8125,0,0,0,0,0
2.963,-3.125,0,0,0,0,0
2.964,-3.125,0,0,0,0,0
2.965,-3.125,0,0,0,0,0
2.966,-3.4375,0,0,0,0,0
2.967,-3.75,0,0,0,0,0
2.968,-4.0625,0,0,0,0,0
2.969,-4.375,0,0,0,0,0
2.97,-5,0,0,0,0,0
2.971,-5.625,0,0,0,0,0
2.972,-5.625,0,0,0,0,0
2.973,-5.625,0,0,0,0,0
2.974,-5.625,0,0,0,0,0
2.975,-5.625,0,0,0,0,0
2.976,-5.3125,0,0,0,0,0
2.977,-5,0,0,0,0,0
2.978,-5.3125,0,0,0,0,0
2.979,-5.625,0,0,0,0,0
2.98,-5.9375,0,0,0,0,0
2.981,-6.25,0,0,0,0,0
2.982,-5.9375,0,0,0,0,0
2.983,-5.625,0,0,0,0,0
2.984,-5.625,0,0,0,0,0
2.985,-5.625,0,0,0,0,0
2.986,-5.9375,0,0,0,0,0
2.987,-6.25,0,0,0,0,0
2.988,-6.875,0,0,0,0,0
2.989,-7.5,0,0,0,0,0
2.99,-7.5,0,0,0,0,0
2.991,-7.5,0,0,0,0,0
2.992,-7.1875,0,0,0,0,0
2.993,-6.875,0,0,0,0,0
2.994,-6.875,0,0,0,0,0
2.995,-6.875,0,0,0,0,0
2.996,-7.5,0,0,0,0,0
2.997,-8.125,0,0,0,0,0
2.998,-8.125,0,0,0,0,0
2.999,-8.125,0,0,0,0,0
3,-8.4375,0,0,0,0,0
3.001,-8.75,0,0,0,0,0
3.002,-8.75,0,0,0,0,0
3.003,-8.75,0,0,0,0,0
3.004,-8.75,0,0,0,0,0
3.005,-8.75,0,0,0,0,0
3.006,-8.75,0,0,0,0,0
3.007,-8.75,0,0,0,0,0
3.008,-8.75,0,0,0,0,0
3.009,-8.75,0,0,0,0,0
3.01,-8.75,0,0,0,0,0
3.011,-8.75,0,0,0,0,0
3.012,-8.75,0,0,0,0,0
3.013,-8.75,0,0,0,0,0
3.014,-9.0625,0,0,0,0,0
3.015,-9.375,0,0,0,0,0
3.016,-9.6875,0,0,0,0,0
3.017,-10,0,0,0,0,0
3.018,-10.313,0,0,0,0,0
3.019,-10.625,0,0,0,0,0
3.02,-10.938,0,0,0,0,0
3.021,-11.25,0,0,0,0,0
3.022,-11.25,0,0,0,0,0
3.023,-11.25,0,0,0,1,0
3.024,-11.25,0,0,0,0,0
3.025,-11.25,0,0,0,0,0
3.026,-10.938,0,0,0,0,0
3.027,-10.625,0,0,0,0,0
3.028,-11.25,0,0,0,0,0
3.029,-11.25,0,0,0,0,0
3.03,-11.25,0,0,0,0,0
3.031,-11.25,0,0,0,0,0
3.032,-10.938,0,0,0,0,0
3.033,-10,0,0,0,0,0
3.034,-9.0625,0,0,0,0,0
3.035,-8.75,0,0,0,0,0
3.036,-9.0625,0,0,0,0,0
3.037,-8.75,0,0,0,0,0
3.038,-8.4375,0,0,0,0,0
3.039,-7.5,0,0,0,0,0
3.04,-7.8125,0,0,0,0,0
3.041,-8.125,0,0,0,0,0
3.042,-7.1875,0,0,0,0,0
3.043,-6.875,0,0,0,0,0
3.044,-7.1875,0,0,0,0,0
3.045,-6.875,0,0,0,0,0
3.046,-6.875,0,0,0,0,0
3.047,-6.875,0,0,0,0,0
3.048,-6.25,0,0,0,0,0
3.049,-6.25,0,0,0,0,0
3.05,-5.625,0,0,0,0,0
3.051,-5.625,0,0,0,0,0
3.052,-5.3125,0,0,0,0,0
3.053,-5.625,0,0,0,0,0
3.054,-5,0,0,0,0,0
3.055,-4.375,0,0,0,0,0
3.056,-4.375,0,0,0,0,0
3.057,-4.375,0,0,0,0,0
3.058,-3.75,0,0,0,0,0
3.059,-3.75,0,0,0,0,0
3.06,-2.8125,0,0,0,0,0
3.061,-2.5,0,0,0,0,0
3.062,-1.875,0,0,0,0,0
3.063,-1.25,0,0,0,0,0
3.064,-0.9375,0,0,0,0,0
3.065,-0.625,0,0,0,0,0
3.066,0,0,0,0,0,0
3.067,0,0,0,0,0,0
3.068,0.9375,0,0,0,0,0
3.069,1.25,0,0,0,0,0
3.07,0.9375,0,0,0,0,0
3.071,1.25,0,0,0,0,0
3.072,1.25,0,0,0,0,0
3.073,1.25,0,0,0,0,0
3.074,1.5625,0,0,0,0,0
3.075,1.25,0,0,0,0,0
3.076,1.875,0,0,0,0,0
3.077,1.875,0,0,0,0,0
3.078,1.875,0,0,0,0,0
3.079,2.5,0,0,0,0,0
3.08,2.5,0,0,0,0,0
3.081,2.5,0,0,0,0,0
3.082,2.1875,0,0,0,0,0
3.083,2.5,0,0,0,0,0
3.084,2.5,0,0,0,0,0
3.085,2.5,0,0,0,0,0
3.086,2.5,0,0,0,0,0
3.087,2.5,0,0,0,0,0
3.088,3.125,0,0,0,0,0
3.089,3.125,0,0,0,0,0
3.09,3.75,0,0,0,0,0
3.091,3.125,0,0,0,0,0
3.092,3.4375,0,0,0,0,0
3.093,4.375,0,0,0,0,0
3.094,4.6875,0,0,0,0,0
3.095,5,0,0,0,0,0
3.096,5,0,0,0,0,0
3.097,5.625,0,0,0,0,0
3.098,5,0,0,0,0,0
3.099,5,0,0,0,0,0
3.1,5.3125,0,0,0,0,0
3.101,5,0,0,0,0,0
3.102,4.6875,0,0,0,0,0
3.103,5,0,0,0,0,0
3.104,4.6875,0,0,0,0,0
3.105,4.375,0,0,0,0,0
3.106,4.6875,0,0,0,0,0
3.107,5,0,0,0,0,0
3.108,5.9375,0,0,0,0,0
3.109,5.625,0,0,0,0,0
3.11,5.625,0,0,0,0,0
3.111,5.625,0,0,0,0,0
3.112,5.3125,0,0,0,0,0
3.113,5,0,0,0,0,0
3.114,4.375,0,0,0,0,0
3.115,3.75,0,0,0,0,0
3.116,3.4375,0,0,0,0,0
3.117,3.125,0,0,0,0,0
3.118,3.125,0,0,0,0,0
3.119,3.125,0,0,0,0,0
3.12,3.125,0,0,0,0,0
3.121,3.75,0,0,0,0,0
3.122,3.75,0,0,0,0,0
3.123,3.75,0,0,0,0,0
3.124,3.75,0,0,0,0,0
3.125,3.75,0,0,0,0,0
3.126,3.75,0,0,0,0,0
3.127,3.125,0,0,0,0,0
3.128,2.8125,0,0,0,0,0
3.129,2.5,0,0,0,0,0
3.13,2.8125,0,0,0,0,0
3.131,3.125,0,0,0,0,0
3.132,3.4375,0,0,0,0,0
3.133,3.75,0,0,0,0,0
3.134,4.0625,0,0,0,0,0
3.135,3.75,0,0,0,0,0
3.136,3.75,0,0,0,0,0
3.137,3.75,0,0,0,0,0
3.138,3.125,0,0,0,0,0
3.139,3.125,0,0,0,0,0
3.14,3.125,0,0,0,0,0
3.141,3.125,0,0,0,0,0
3.142,2.8125,0,0,0,0,0
3.143,2.5,0,0,0,0,0
3.144,3.125,0,0,0,0,1
3.145,3.125,0,0,0,0,0
3.146,3.125,0,0,0,0,0
3.147,2.5,0,0,0,0,0
3.148,2.8125,0,0,0,0,0
3.149,3.125,0,0,0,0,0
3.15,3.125,0,0,0,0,0
3.151,3.125,0,0,0,0,0
3.152,2.8125,0,0,0,0,0
3.153,3.125,0,0,0,0,0
3.154,2.8125,0,0,0,0,0
3.155,3.125,0,0,0,0,0
3.156,2.8125,0,0,0,0,0
3.157,3.125,0,0,0,0,0
3.158,2.8125,0,0,0,0,0
3.159,2.5,0,0,0,0,0
3.16,2.1875,0,0,0,0,0
3.161,1.875,0,0,0,0,0
3.162,2.8125,0,0,0,0,0
3.163,2.5,0,0,0,0,0
3.164,2.5,0,0,0,0,0
3.165,3.125,0,0,0,0,0
3.166,2.8125,0,0,0,0,0
3.167,3.125,0,0,0,0,0
3.168,3.125,0,0,0,0,0
3.169,3.75,0,0,0,0,0
3.17,3.75,0,0,0,0,0
3.171,3.75,0,0,0,0,0
3.172,3.75,0,0,0,0,0
3.173,3.75,0,0,0,0,0
3.174,3.75,0,0,0,0,0
3.175,3.75,0,0,0,0,0
3.176,3.75,0,0,0,0,0
3.177,3.125,0,0,0,0,0
3.178,3.75,0,0,0,0,0
3.179,3.75,0,0,0,0,0
3.18,3.75,0,0,0,0,0
3.181,3.75,0,0,0,0,0
3.182,4.0625,0,0,0,0,0
3.183,4.375,0,0,0,0,0
3.184,4.375,0,0,0,0,0
3.185,3.75,0,0,0,0,0
3.186,3.75,0,0,0,0,0
3.187,3.125,0,0,0,0,0
3.188,3.125,0,0,0,0,0
3.189,3.125,0,0,0,0,0
3.19,3.4375,0,0,0,0,0
3.191,3.75,0,0,0,0,0
3.192,4.0625,0,0,0,0,0
3.193,4.375,0,0,0,0,0
3.194,4.375,0,0,0,0,0
3.195,4.375,0,0,0,0,0
3.196,4.375,0,0,0,0,0
3.197,4.375,0,0,0,0,0
3.198,3.4375,0,0,0,0,0
3.199,3.125,0,0,0,0,0
3.2,3.125,0,0,0,0,0
3.201,3.125,0,0,0,0,0
3.202,3.75,0,0,0,0,0
3.203,3.75,0,0,0,0,0
3.204,4.0625,0,0,0,0,0
3.205,4.375,0,0,0,0,0
3.206,4.6875,0,0,0,0,0
3.207,5,0,0,0,0,0
3.208,4.6875,0,0,0,0,0
3.209,4.375,0,0,0,0,0
3.21,4.375,0,0,0,0,0
3.211,4.375,0,0,0,0,0
3.212,4.375,0,0,0,0,0
3.213,4.375,0,0,0,0,0
3.214,4.0625,0,0,0,0,0
3.215,3.75,0,0,0,0,0
3.216,4.0625,0,0,0,0,0
3.217,3.75,0,0,0,0,0
3.218,3.4375,0,0,0,0,0
3.219,3.125,0,0,0,0,0
3.22,3.4375,0,0,0,0,0
3.221,3.125,0,0,0,0,0
3.222,2.8125,0,0,0,0,0
3.223,2.5,0,0,0,0,0
3.224,3.125,0,0,0,0,0
3.225,3.125,0,0,0,0,0
3.226,3.125,0,0,0,0,0
3.227,3.125,0,0,0,0,0
3.228,2.8125,0,0,0,0,0
3.229,2.5,0,0,0,0,0
3.23,2.5,0,0,0,0,0
3.231,2.5,0,0,0,0,0
3.232,2.5,0,0,0,0,0
3.233,2.5,0,0,0,0,0
3.234,2.5,0,0,0,0,0
3.235,2.5,0,0,0,0,0
3.236,2.5,0,0,0,0,0
3.237,2.5,0,0,0,0,0
3.238,2.8125,0,0,0,0,0
3.239,3.125,0,0,0,0,0
3.24,3.125,0,0,0,0,0
3.241,3.125,0,0,0,0,0
3.242,3.75,0,0,0,0,0
3.243,3.75,0,0,0,0,0
3.244,3.125,0,0,0,0,0
3.245,3.125,0,0,0,0,0
3.246,3.125,0,0,0,0,0
3.247,3.75,0,0,0,0,0
3.248,3.75,0,0,0,0,0
3.249,3.75,0,0,0,0,0
3.25,3.75,0,0,0,0,0
3.251,3.75,0,0,0,0,0
3.252,4.0625,0,0,0,0,0
3.253,4.375,0,0,0,0,0
3.254,4.375,0,0,0,0,0
3.255,4.375,0,0,0,0,0
3.256,4.6875,0,0,0,0,0
3.257,4.375,0,0,0,0,0
3.258,4.375,0,0,0,0,0
3.259,4.375,0,0,0,0,0
3.26,4.375,0,0,0,0,0
3.261,4.375,0,0,0,0,0
3.262,4.375,0,0,0,0,0
3.263,4.375,0,0,0,0,0
3.264,4.375,0,0,0,0,0
3.265,4.375,0,0,0,0,0
3.266,4.0625,0,0,0,0,0
3.267,3.75,0,0,0,0,0
3.268,3.4375,0,0,0,0,0
3.269,2.5,0,0,0,0,0
3.27,2.5,0,0,0,0,0
3.271,2.5,0,0,0,0,0
3.272,3.125,0,0,0,0,0
3.273,2.5,0,0,0,0,0
3.274,3.125,0,0,0,0,0
3.275,2.5,0,0,0,0,0
3.276,2.8125,0,0,0,0,0
3.277,2.5,0,0,0,0,0
3.278,2.8125,0,0,0,0,0
3.279,3.125,0,0,0,0,0
3.28,3.125,0,0,0,0,0
3.281,3.125,0,0,0,0,0
3.282,3.125,0,0,0,0,0
3.283,2.5,0,0,0,0,0
3.284,3.125,0,0,0,0,0
3.285,2.5,0,0,0,0,0
3.286,2.1875,0,0,0,0,0
3.287,1.875,0,0,0,0,0
3.288,1.875,0,0,0,0,0
3.289,1.875,0,0,0,0,0
3.29,1.875,0,0,0,0,0
3.291,1.875,0,0,0,0,0
3.292,1.875,0,0,0,0,0
3.293,1.875,0,0,0,0,0
3.294,1.875,0,0,0,0,0
3.295,1.875,0,0,0,0,0
3.296,2.1875,0,0,0,0,0
3.297,2.5,0,0,0,0,0
3.298,2.1875,0,0,0,0,0
3.299,1.875,0,0,0,0,0
3.3,1.5625,0,0,0,0,0
3.301,1.25,0,0,0,0,0
3.302,2.5,0,0,0,0,0
3.303,2.5,0,0,0,0,0
3.304,2.8125,0,0,0,0,0
3.305,2.5,0,0,0,0,0
3.306,2.5,0,0,0,0,0
3.307,3.125,0,0,0,0,0
3.308,3.125,0,0,0,0,0
3.309,3.125,0,0,0,0,0
3.31,3.75,0,0,0,0,0
3.311,4.375,0,0,0,0,0
3.312,5,0,0,0,0,0
3.313,5,0,0,0,0,0
3.314,5,0,0,0,0,0
3.315,5.625,0,0,0,0,0
3.316,5.625,0,0,0,0,0
3.317,5.625,0,0,0,0,0
3.318,5.3125,0,0,0,0,0
3.319,5,0,0,0,0,0
3.32,5.625,0,0,0,0,0
3.321,5.625,0,0,0,0,0
3.322,5.3125,0,0,0,0,0
3.323,5,0,0,0,0,0
3.324,4.6875,0,0,0,0,0
3.325,4.375,0,0,0,0,0
3.326,5,0,0,0,0,0
3.327,5,0,0,0,0,0
3.328,6.5625,0,0,0,0,0
3.329,6.875,0,0,0,0,0
3.33,7.1875,0,0,0,0,0
3.331,7.5,0,0,0,0,0
3.332,7.8125,0,0,0,0,0
3.333,8.125,0,0,0,0,0
3.334,7.5,0,0,0,0,0
3.335,6.875,0,0,0,0,0
3.336,6.5625,0,0,0,0,0
3.337,6.25,0,0,0,0,0
3.338,6.25,0,0,0,0,0
3.339,6.875,0,0,0,0,0
3.34,6.25,0,0,0,0,0
3.341,6.25,0,0,0,0,0
3.342,6.25,0,0,0,0,0
3.343,6.25,0,0,0,0,0
3.344,7.5,0,0,0,0,0
3.345,8.125,0,0,0,0,0
3.346,8.125,0,0,0,0,0
3.347,8.125,0,0,0,0,0
3.348,8.125,0,0,0,0,0
3.349,8.125,0,0,0,0,0
3.35,8.125,0,0,0,0,0
3.351,8.125,0,0,0,0,0
3.352,8.125,0,0,0,0,0
3.353,8.125,0,0,0,0,0
3.354,8.125,0,0,0,0,0
3.355,8.125,0,0,0,0,0
3.356,7.8125,0,0,0,0,0
3.357,7.5,0,0,0,0,0
3.358,7.5,0,0,0,0,0
3.359,7.5,0,0,0,0,0
3.36,6.875,0,0,0,0,0
3.361,6.875,0,0,0,0,0
3.362,7.1875,0,0,0,0,0
3.363,7.5,0,0,0,0,0
3.364,7.1875,0,0,0,0,0
3.365,6.25,0,0,0,0,0
3.366,5.3125,0,0,0,0,0
3.367,5,0,0,0,0,0
3.368,5.3125,0,0,0,0,0
3.369,5,0,0,0,0,0
3.37,4.6875,0,0,0,0,0
3.371,4.375,0,0,0,0,0
3.372,4.6875,0,0,0,0,0
3.373,4.375,0,0,0,0,0
3.374,3.75,0,0,0,0,0
3.375,3.125,0,0,0,0,0
3.376,3.75,0,0,0,0,0
3.377,3.75,0,0,0,0,0
3.378,3.75,0,0,0,0,0
3.379,3.75,0,0,0,0,0
3.38,3.75,0,0,0,0,0
3.381,3.125,0,0,0,0,0
3.382,2.8125,0,0,0,0,0
3.383,2.5,0,0,0,0,0
3.384,1.875,0,0,0,0,0
3.385,2.5,0,0,0,0,0
3.386,1.875,0,0,0,0,0
3.387,2.5,0,0,0,0,0
3.388,2.5,0,0,0,0,0
3.389,2.5,0,0,0,0,0
3.39,2.5,0,0,0,0,0
3.391,2.5,0,0,0,0,0
3.392,2.8125,0,0,0,0,0
3.393,2.5,0,0,0,0,0
3.394,2.5,0,0,0,0,0
3.395,1.875,0,0,0,0,0
3.396,1.875,0,0,0,0,0
3.397,1.25,0,0,0,0,0
3.398,1.25,0,0,0,0,0
3.399,1.25,0,0,0,0,0
3.4,1.25,0,0,0,0,0
3.401,1.25,0,0,0,0,0
3.402,1.5625,0,0,0,0,0
3.403,1.875,0,0,0,0,0
3.404,1.875,0,0,0,0,0
3.405,1.875,0,0,0,0,0
3.406,2.1875,0,0,0,0,0
3.407,2.5,0,0,0,0,0
3.408,2.5,0,0,0,0,0
3.409,2.5,0,0,0,0,0
3.41,2.1875,0,0,0,0,0
3.411,1.875,0,0,0,0,0
3.412,1.875,0,0,0,0,0
3.413,1.875,0,0,0,0,0
3.414,2.1875,0,0,0,0,0
3.415,1.875,0,0,0,0,0
3.416,1.5625,0,0,0,0,0
3.417,1.25,0,0,0,0,0
3.418,2.1875,0,0,0,0,0
3.419,1.875,0,0,0,0,0
3.42,2.1875,0,0,0,0,0
3.421,2.5,0,0,0,0,0
3.422,1.5625,0,0,0,0,0
3.423,1.875,0,0,0,0,0
3.424,1.875,0,0,0,0,0
3.425,1.875,0,0,0,0,0
3.426,1.5625,0,0,0,0,0
3.427,1.25,0,0,0,0,0
3.428,0.9375,0,0,0,0,0
3.429,0.625,0,0,0,0,0
3.43,0,0,0,0,0,0
3.431,0,0,0,0,0,0
3.432,0.3125,0,0,0,0,0
3.433,0.625,0,0,0,0,0
3.434,0.9375,0,0,0,0,0
3.435,1.25,0,0,0,0,0
3.436,0.9375,0,0,0,0,0
3.437,1.25,0,0,0,0,0
3.438,1.25,0,0,0,0,0
3.439,1.25,0,0,0,0,0
3.44,1.5625,0,0,0,0,0
3.441,1.875,0,0,0,0,0
3.442,0.9375,0,0,0,0,0
3.443,1.25,0,0,0,0,0
3.444,0.625,0,0,0,0,0
3.445,1.25,0,0,0,0,0
3.446,1.25,0,0,0,0,0
3.447,1.25,0,0,0,0,0
3.448,1.25,0,0,0,0,0
3.449,1.25,0,0,0,0,0
3.45,1.25,0,0,0,0,0
3.451,1.25,0,0,0,0,0
3.452,1.25,0,0,0,0,0
3.453,1.25,0,0,0,0,0
3.454,1.25,0,0,0,0,0
3.455,1.25,0,0,0,0,0
3.456,0.9375,0,0,0,0,0
3.457,0.625,0,0,0,0,0
3.458,0,0,0,0,0,0
3.459,0.625,0,0,0,0,0
3.46,0.625,0,0,0,0,0
3.461,0.625,0,0,0,0,0
3.462,0.3125,0,0,0,0,0
3.463,0.625,0,0,0,0,0
3.464,0.3125,0,0,0,0,0
3.465,0,0,0,0,0,0
3.466,0.625,0,0,0,0,0
3.467,1.25,0,0,0,0,0
3.468,0.9375,0,0,0,0,0
3.469,1.25,0,0,0,0,0
3.47,1.5625,0,0,0,0,0
3.471,1.875,0,0,0,0,0
3.472,1.25,1,0,0,0,0
3.473,1.25,0,0,0,0,0
3.474,1.25,0,0,0,0,0
3.475,1.25,0,0,0,0,0
3.476,0.9375,0,0,0,0,0
3.477,0.625,0,0,0,0,0
3.478,0.625,0,0,0,0,0
3.479,1.25,0,0,0,0,0
3.48,0.625,0,0,0,0,0
3.481,0.625,0,0,0,0,0
3.482,0.625,0,0,0,0,0
3.483,0.625,0,0,0,0,0
3.484,0.9375,0,0,0,0,0
3.485,1.25,0,0,0,0,0
3.486,1.5625,0,0,0,0,0
3.487,1.875,0,0,0,0,0
3.488,1.875,0,0,0,0,0
3.489,1.875,0,0,0,0,0
3.49,2.5,0,0,0,0,0
3.491,2.5,0,0,0,0,0
3.492,3.125,0,0,0,0,0
3.493,3.75,0,0,0,0,0
3.494,5,0,0,0,0,0
3.495,6.25,0,0,0,0,0
3.496,7.5,0,0,0,0,0
3.497,9.375,0,0,0,0,0
3.498,10,0,0,0,0,0
3.499,10.625,0,0,0,0,0
3.5,10.313,0,0,0,0,0
3.501,11.25,0,0,0,0,0
3.502,12.813,0,0,0,0,0
3.503,15,0,0,0,0,0
3.504,16.25,0,0,0,0,0
3.505,17.5,0,0,0,0,0
3.506,19.063,0,0,0,0,0
3.507,20.625,0,0,0,0,0
3.508,22.5,0,0,0,0,0
3.509,23.75,0,0,0,0,0
3.51,25.313,0,0,0,0,0
3.511,26.875,0,0,0,0,0
3.512,28.75,0,0,0,0,0
3.513,31.25,0,0,0,0,0
3.514,33.75,0,0,0,0,0
3.515,36.25,0,0,0,0,0
3.516,37.5,0,0,0,0,0
3.517,38.75,0,0,0,0,0
3.518,39.063,0,0,0,0,0
3.519,39.375,0,0,0,0,0
3.52,38.75,0,1,0,0,0
3.521,37.5,0,0,0,0,0
3.522,36.563,0,0,0,0,0
3.523,35,0,0,0,0,0
3.524,34.688,0,0,0,0,0
3.525,33.125,0,0,0,0,0
3.526,30.625,0,0,0,0,0
3.527,28.125,0,0,0,0,0
3.528,25.625,0,0,0,0,0
3.529,22.5,0,0,0,0,0
3.53,18.438,0,0,0,0,0
3.531,13.75,0,0,0,0,0
3.532,9.6875,0,0,0,0,0
3.533,4.375,0,0,0,0,0
3.534,-2.5,0,0,0,0,0
3.535,-10,0,0,0,0,0
3.536,-16.563,0,0,0,0,0
3.537,-21.875,0,0,0,0,0
3.538,-26.25,0,0,0,0,0
3.539,-29.375,0,0,0,0,0
3.54,-31.875,0,0,0,0,0
3.541,-31.875,0,0,0,0,0
3.542,-32.188,0,0,0,0,0
3.543,-31.875,0,0,0,0,0
3.544,-29.688,0,0,0,0,0
3.545,-26.25,0,0,0,0,0
3.546,-22.813,0,0,0,0,0
3.547,-19.375,0,0,0,0,0
3.548,-17.188,0,0,0,0,0
3.549,-16.875,0,0,0,0,0
3.55,-15.938,0,0,0,0,0
3.551,-15,0,0,0,0,0
3.552,-13.438,0,0,0,0,0
3.553,-11.875,0,0,0,0,0
3.554,-10.313,0,0,0,0,0
3.555,-7.5,0,0,0,0,0
3.556,-5.625,0,0,0,0,0
3.557,-3.75,0,0,0,0,0
3.558,-1.875,0,0,0,0,0
3.559,0,0,0,0,0,0
3.56,1.5625,0,0,0,0,0
3.561,2.5,0,0,0,0,0
3.562,2.5,0,0,0,0,0
3.563,3.75,0,0,0,0,0
3.564,3.75,0,0,0,0,0
3.565,3.75,0,0,0,0,0
3.566,3.75,0,0,0,0,0
3.567,3.125,0,0,0,0,0
3.568,3.75,0,0,0,0,0
3.569,3.75,0,0,0,0,0
3.57,3.75,0,0,0,0,0
3.571,3.75,0,0,0,0,0
3.572,3.75,0,0,0,0,0
3.573,3.75,0,0,0,0,0
3.574,3.75,0,0,0,0,0
3.575,3.75,0,0,0,0,0
3.576,4.375,0,0,0,0,0
3.577,4.375,0,0,0,0,0
3.578,5,0,0,0,0,0
3.579,5,0,0,0,0,0
3.58,4.6875,0,0,0,0,0
3.581,3.75,0,0,0,0,0
3.582,3.75,0,0,0,0,0
3.583,3.75,0,0,0,0,0
3.584,3.4375,0,0,0,0,0
3.585,3.125,0,0,0,0,0
3.586,2.8125,0,0,0,0,0
3.587,3.125,0,0,0,0,0
3.588,2.8125,0,0,0,0,0
3.589,3.125,0,0,0,0,0
3.59,3.4375,0,0,0,0,0
3.591,3.125,0,0,0,0,0
3.592,2.8125,0,0,0,0,0
3.593,2.5,0,0,0,0,0
3.594,1.875,0,0,0,0,0
3.595,1.875,0,0,0,0,0
3.596,0.9375,0,0,0,0,0
3.597,0.625,0,0,0,0,0
3.598,0.9375,0,0,0,0,0
3.599,0.625,0,0,0,0,0
3.6,0.3125,0,0,0,0,0
3.601,0,0,0,0,0,0
3.602,0.3125,0,0,0,0,0
3.603,0,0,0,0,0,0
3.604,0,0,0,0,0,0
3.605,-0.625,0,0,0,0,0
3.606,-0.625,0,0,0,0,0
3.607,-0.625,0,0,0,0,0
3.608,-0.9375,0,0,0,0,0
3.609,-1.25,0,0,0,0,0
3.61,-1.875,0,0,0,0,0
3.611,-1.875,0,0,0,0,0
3.612,-2.8125,0,0,0,0,0
3.613,-3.125,0,0,0,0,0
3.614,-3.75,0,0,0,0,0
3.615,-4.375,0,0,0,0,0
3.616,-4.375,0,0,0,0,0
3.617,-4.375,0,0,0,0,0
3.618,-4.375,0,0,0,0,0
3.619,-4.375,0,0,0,0,0
3.62,-4.6875,0,0,0,0,0
3.621,-5,0,0,0,0,0
3.622,-4.375,0,0,0,0,0
3.623,-4.375,0,0,0,0,0
3.624,-4.0625,0,0,0,0,0
3.625,-3.75,0,0,0,0,0
3.626,-2.8125,0,0,0,0,0
3.627,-2.5,0,0,0,0,0
3.628,-2.1875,0,0,0,0,0
3.629,-2.5,0,0,0,0,0
3.63,-2.5,0,0,0,0,0
3.631,-2.5,0,0,0,0,0
3.632,-2.1875,0,0,0,0,0
3.633,-2.5,0,0,0,0,0
3.634,-2.8125,0,0,0,0,0
3.635,-3.125,0,0,0,0,0
3.636,-3.125,0,0,0,0,0
3.637,-3.125,0,0,0,0,0
3.638,-2.8125,0,0,0,0,0
3.639,-2.5,0,0,0,0,0
3.64,-2.8125,0,0,0,0,0
3.641,-2.5,0,0,1,0,0
3.642,-2.8125,0,0,0,0,0
3.643,-2.5,0,0,0,0,0
3.644,-2.5,0,0,0,0,0
3.645,-1.875,0,0,0,0,0
3.646,-1.875,0,0,0,0,0
3.647,-1.25,0,0,0,0,0
3.648,-0.9375,0,0,0,0,0
3.649,-0.625,0,0,0,0,0
3.65,0,0,0,0,0,0
3.651,0.625,0,0,0,0,0
3.652,0.625,0,0,0,0,0
3.653,0.625,0,0,0,0,0
3.654,0,0,0,0,0,0
3.655,0.625,0,0,0,0,0
3.656,-0.625,0,0,0,0,0
3.657,-0.625,0,0,0,0,0
3.658,-0.3125,0,0,0,0,0
3.659,0,0,0,0,0,0
3.66,0,0,0,0,0,0
3.661,-0.625,0,0,0,0,0
3.662,-0.3125,0,0,0,0,0
3.663,-0.625,0,0,0,0,0
3.664,-0.625,0,0,0,0,0
3.665,-0.625,0,0,0,0,0
3.666,-0.9375,0,0,0,0,0
3.667,-1.25,0,0,0,0,0
3.668,-0.9375,0,0,0,0,0
3.669,-0.625,0,0,0,0,0
3.67,-0.3125,0,0,0,0,0
3.671,0,0,0,0,0,0
3.672,0.3125,0,0,0,0,0
3.673,0.625,0,0,0,0,0
3.674,0.625,0,0,0,0,0
3.675,0.625,0,0,0,0,0
3.676,-0.3125,0,0,0,0,0
3.677,0,0,0,0,0,0
3.678,0,0,0,0,0,0
3.679,0,0,0,0,0,0
3.68,0,0,0,0,0,0
3.681,-0.625,0,0,0,0,0
3.682,-0.3125,0,0,0,0,0
3.683,-0.625,0,0,0,0,0
3.684,-0.625,0,0,0,0,0
3.685,-1.25,0,0,0,0,0
3.686,-0.625,0,0,0,0,0
3.687,-1.25,0,0,0,0,0
3.688,-0.3125,0,0,0,0,0
3.689,0,0,0,0,0,0
3.69,-0.3125,0,0,0,0,0
3.691,-0.625,0,0,0,0,0
3.692,-0.3125,0,0,0,0,0
3.693,0,0,0,0,0,0
3.694,-0.3125,0,0,0,0,0
3.695,-0.625,0,0,0,0,0
3.696,-0.9375,0,0,0,0,0
3.697,-1.25,0,0,0,0,0
3.698,-0.9375,0,0,0,0,0
3.699,-0.625,0,0,0,0,0
3.7,-0.3125,0,0,0,0,0
3.701,0,0,0,0,0,0
3.702,0.3125,0,0,0,0,0
3.703,0.625,0,0,0,0,0
3.704,0.3125,0,0,0,0,0
3.705,0,0,0,0,0,0
3.706,0,0,0,0,0,0
3.707,0,0,0,0,0,0
3.708,-0.3125,0,0,0,0,0
3.709,-0.625,0,0,0,0,0
3.71,-0.625,0,0,0,0,0
3.711,-0.625,0,0,0,0,0
3.712,-0.9375,0,0,0,0,0
3.713,-1.25,0,0,0,0,0
3.714,-1.5625,0,0,0,0,0
3.715,-1.25,0,0,0,0,0
3.716,-1.25,0,0,0,0,0
3.717,-1.25,0,0,0,0,0
3.718,-1.25,0,0,0,0,0
3.719,-1.25,0,0,0,0,0
3.72,-0.9375,0,0,0,0,0
3.721,-0.625,0,0,0,0,0
3.722,-0.3125,0,0,0,0,0
3.723,-0.625,0,0,0,0,0
3.724,-0.3125,0,0,0,0,0
3.725,0,0,0,0,0,0
3.726,0,0,0,0,0,0
3.727,0,0,0,0,0,0
3.728,-0.625,0,0,0,0,0
3.729,-1.25,0,0,0,0,0
3.73,-1.25,0,0,0,0,0
3.731,-1.25,0,0,0,0,0
3.732,-0.625,0,0,0,0,0
3.733,-0.625,0,0,0,0,0
3.734,-0.625,0,0,0,0,0
3.735,-0.625,0,0,0,0,0
3.736,-0.9375,0,0,0,0,0
3.737,-1.25,0,0,0,0,0
3.738,-1.5625,0,0,0,0,0
3.739,-2.5,0,0,0,0,0
3.74,-3.125,0,0,0,0,0
3.741,-2.5,0,0,0,0,0
3.742,-2.1875,0,0,0,0,0
3.743,-2.5,0,0,0,0,0
3.744,-2.1875,0,0,0,0,0
3.745,-1.875,0,0,0,0,0
3.746,-2.1875,0,0,0,0,0
3.747,-2.5,0,0,0,0,0
3.748,-2.5,0,0,0,0,0
3.749,-3.125,0,0,0,0,0
3.75,-3.125,0,0,0,0,0
3.751,-3.125,0,0,0,0,0
3.752,-2.8125,0,0,0,0,0
3.753,-2.5,0,0,0,0,0
3.754,-3.4375,0,0,0,0,0
3.755,-3.75,0,0,0,0,0
3.756,-3.4375,0,0,0,0,0
3.757,-3.75,0,0,0,0,0
3.758,-3.4375,0,0,0,0,0
3.759,-4.375,0,0,0,0,0
3.76,-5,0,0,0,0,0
3.761,-5.625,0,0,0,0,0
3.762,-5.9375,0,0,0,0,0
3.763,-5.625,0,0,0,0,0
3.764,-5.3125,0,0,0,0,0
3.765,-5.625,0,0,0,0,0
3.766,-5.3125,0,0,0,0,0
3.767,-5,0,0,0,0,0
3.768,-5.9375,0,0,0,0,0
3.769,-6.25,0,0,0,0,0
3.77,-6.25,0,0,0,0,0
3.771,-6.25,0,0,0,0,0
3.772,-6.25,0,0,0,0,0
3.773,-6.875,0,0,0,0,0
3.774,-6.5625,0,0,0,0,0
3.775,-6.25,0,0,0,0,0
3.776,-6.875,0,0,0,0,0
3.777,-6.875,0,0,0,0,0
3.778,-6.875,0,0,0,0,0
3.779,-7.5,0,0,0,0,0
3.78,-7.8125,0,0,0,0,0
3.781,-8.125,0,0,0,0,0
3.782,-8.125,0,0,0,0,0
3.783,-8.125,0,0,0,0,0
3.784,-8.4375,0,0,0,0,0
3.785,-9.375,0,0,0,0,0
3.786,-9.375,0,0,0,0,0
3.787,-9.375,0,0,0,0,0
3.788,-9.6875,0,0,0,0,0
3.789,-10,0,0,0,0,0
3.79,-9.6875,0,0,0,0,0
3.791,-10,0,0,0,0,0
3.792,-10.313,0,0,0,0,0
3.793,-10.625,0,0,0,0,0
3.794,-10.625,0,0,0,0,0
3.795,-10.625,0,0,0,0,0
3.796,-10.625,0,0,0,0,0
3.797,-10.625,0,0,0,0,0
3.798,-10.625,0,0,0,0,0
3.799,-11.25,0,0,0,0,0
3.8,-11.563,0,0,0,1,0
3.801,-11.875,0,0,0,0,0
3.802,-11.25,0,0,0,0,0
3.803,-10.625,0,0,0,0,0
3.804,-10.938,0,0,0,0,0
3.805,-11.25,0,0,0,0,0
3.806,-10.938,0,0,0,0,0
3.807,-11.25,0,0,0,0,0
3.808,-11.25,0,0,0,0,0
3.809,-11.25,0,0,0,0,0
3.81,-11.25,0,0,0,0,0
3.811,-11.25,0,0,0,0,0
3.812,-10.938,0,0,0,0,0
3.813,-10.625,0,0,0,0,0
3.814,-10.625,0,0,0,0,0
3.815,-10.625,0,0,0,0,0
3.816,-9.6875,0,0,0,0,0
3.817,-9.375,0,0,0,0,0
3.818,-9.375,0,0,0,0,0
3.819,-8.75,0,0,0,0,0
3.82,-9.6875,0,0,0,0,0
3.821,-9.375,0,0,0,0,0
3.822,-9.375,0,0,0,0,0
3.823,-8.75,0,0,0,0,0
3.824,-8.75,0,0,0,0,0
3.825,-8.75,0,0,0,0,0
3.826,-9.0625,0,0,0,0,0
3.827,-8.75,0,0,0,0,0
3.828,-8.75,0,0,0,0,0
3.829,-8.125,0,0,0,0,0
3.83,-8.125,0,0,0,0,0
3.831,-7.5,0,0,0,0,0
3.832,-7.1875,0,0,0,0,0
3.833,-6.875,0,0,0,0,0
3.834,-6.5625,0,0,0,0,0
3.835,-5.625,0,0,0,0,0
3.836,-5.625,0,0,0,0,0
3.837,-5,0,0,0,0,0
3.838,-5.3125,0,0,0,0,0
3.839,-5,0,0,0,0,0
3.84,-5,0,0,0,0,0
3.841,-4.375,0,0,0,0,0
3.842,-4.375,0,0,0,0,0
3.843,-3.125,0,0,0,0,0
3.844,-3.125,0,0,0,0,0
3.845,-2.5,0,0,0,0,0
3.846,-2.5,0,0,0,0,0
3.847,-2.5,0,0,0,0,0
3.848,-1.875,0,0,0,0,0
3.849,-1.875,0,0,0,0,0
3.85,-1.5625,0,0,0,0,0
3.851,-0.625,0,0,0,0,0
3.852,-0.625,0,0,0,0,0
3.853,-0.625,0,0,0,0,0
3.854,0,0,0,0,0,0
3.855,0,0,0,0,0,0
3.856,0.9375,0,0,0,0,0
3.857,1.25,0,0,0,0,0
3.858,0.9375,0,0,0,0,0
3.859,1.25,0,0,0,0,0
3.86,1.25,0,0,0,0,0
3.861,1.25,0,0,0,0,0
3.862,1.875,0,0,0,0,0
3.863,2.5,0,0,0,0,0
3.864,2.5,0,0,0,0,0
3.865,2.5,0,0,0,0,0
3.866,2.5,0,0,0,0,0
3.867,3.125,0,0,0,0,0
3.868,3.125,0,0,0,0,0
3.869,3.125,0,0,0,0,0
3.87,3.75,0,0,0,0,0
3.871,3.75,0,0,0,0,0
3.872,3.4375,0,0,0,0,0
3.873,3.125,0,0,0,0,0
3.874,3.125,0,0,0,0,0
3.875,3.75,0,0,0,0,0
3.876,3.75,0,0,0,0,0
3.877,3.75,0,0,0,0,0
3.878,4.6875,0,0,0,0,0
3.879,4.375,0,0,0,0,0
3.88,4.6875,0,0,0,0,0
3.881,3.75,0,0,0,0,0
3.882,4.6875,0,0,0,0,0
3.883,5,0,0,0,0,0
3.884,5.3125,0,0,0,0,0
3.885,5.625,0,0,0,0,0
3.886,5.625,0,0,0,0,0
3.887,5.625,0,0,0,0,0
3.888,5.625,0,0,0,0,0
3.889,5.625,0,0,0,0,0
3.89,5.625,0,0,0,0,0
3.891,5.625,0,0,0,0,0
3.892,5.625,0,0,0,0,0
3.893,5.625,0,0,0,0,0
3.894,5.625,0,0,0,0,0
3.895,5.625,0,0,0,0,0
3.896,5.3125,0,0,0,0,0
3.897,5,0,0,0,0,0
3.898,4.6875,0,0,0,0,0
3.899,4.375,0,0,0,0,0
3.9,5,0,0,0,0,0
3.901,5,0,0,0,0,0
3.902,5,0,0,0,0,0
3.903,5.625,0,0,0,0,0
3.904,5.3125,0,0,0,0,0
3.905,5.625,0,0,0,0,0
3.906,5.9375,0,0,0,0,0
3.907,5.625,0,0,0,0,0
3.908,5.625,0,0,0,0,0
3.909,5.625,0,0,0,0,0
3.91,6.25,0,0,0,0,0
3.911,6.25,0,0,0,0,0
3.912,6.25,0,0,0,0,0
3.913,5.625,0,0,0,0,0
3.914,5.625,0,0,0,0,0
3.915,5.625,0,0,0,0,0
3.916,5.625,0,0,0,0,0
3.917,5.625,0,0,0,0,0
3.918,5,0,0,0,0,0
3.919,5,0,0,0,0,0
3.92,5,0,0,0,0,0
3.921,5,0,0,0,0,0
3.922,5,0,0,0,0,0
3.923,5,0,0,0,0,0
3.924,5,0,0,0,0,0
3.925,5,0,0,0,0,0
3.926,5,0,0,0,0,0
3.927,5,0,0,0,0,0
3.928,5,0,0,0,0,0
3.929,5,0,0,0,0,0
3.93,5,0,0,0,0,0
3.931,5,0,0,0,0,0
3.932,5,0,0,0,0,0
3.933,5,0,0,0,0,0
3.934,4.6875,0,0,0,0,0
3.935,4.375,0,0,0,0,0
3.936,4.375,0,0,0,0,0
3.937,5,0,0,0,0,0
3.938,4.375,0,0,0,0,0
3.939,4.375,0,0,0,0,0
3.94,4.0625,0,0,0,0,0
3.941,3.75,0,0,0,0,0
3.942,3.75,0,0,0,0,1
3.943,3.75,0,0,0,0,0
3.944,3.75,0,0,0,0,0
3.945,3.75,0,0,0,0,0
3.946,4.0625,0,0,0,0,0
3.947,4.375,0,0,0,0,0
3.948,4.375,0,0,0,0,0
3.949,4.375,0,0,0,0,0
3.95,4.0625,0,0,0,0,0
3.951,3.75,0,0,0,0,0
3.952,4.0625,0,0,0,0,0
3.953,4.375,0,0,0,0,0
3.954,4.375,0,0,0,0,0
3.955,4.375,0,0,0,0,0
3.956,4.375,0,0,0,0,0
3.957,4.375,0,0,0,0,0
3.958,5,0,0,0,0,0
3.959,5,0,0,0,0,0
3.96,4.375,0,0,0,0,0
3.961,4.375,0,0,0,0,0
3.962,3.75,0,0,0,0,0
3.963,3.75,0,0,0,0,0
3.964,4.0625,0,0,0,0,0
3.965,3.75,0,0,0,0,0
3.966,4.0625,0,0,0,0,0
3.967,5,0,0,0,0,0
3.968,5,0,0,0,0,0
3.969,5.625,0,0,0,0,0
3.97,5,0,0,0,0,0
3.971,5,0,0,0,0,0
3.972,5,0,0,0,0,0
3.973,5,0,0,0,0,0
3.974,5,0,0,0,0,0
3.975,5,0,0,0,0,0
3.976,5,0,0,0,0,0
3.977,5,0,0,0,0,0
3.978,4.375,0,0,0,0,0
3.979,4.375,0,0,0,0,0
3.98,4.375,0,0,0,0,0
3.981,4.375,0,0,0,0,0
3.982,4.0625,0,0,0,0,0
3.983,3.75,0,0,0,0,0
3.984,4.0625,0,0,0,0,0
3.985,4.375,0,0,0,0,0
3.986,4.375,0,0,0,0,0
3.987,5,0,0,0,0,0
3.988,5.3125,0,0,0,0,0
3.989,5,0,0,0,0,0
3.99,5.625,0,0,0,0,0
3.991,5.625,0,0,0,0,0
3.992,5,0,0,0,0,0
3.993,5,0,0,0,0,0
3.994,5.3125,0,0,0,0,0
3.995,5.625,0,0,0,0,0
3.996,5.3125,0,0,0,0,0
3.997,5,0,0,0,0,0
3.998,5,0,0,0,0,0
3.999,5,0,0,0,0,0
4,4.375,0,0,0,0,0
4.001,3.75,0,0,0,0,0
4.002,4.0625,0,0,0,0,0
4.003,4.375,0,0,0,0,0
4.004,4.6875,0,0,0,0,0
4.005,5,0,0,0,0,0
4.006,5,0,0,0,0,0
4.007,5,0,0,0,0,0
4.008,4.6875,0,0,0,0,0
4.009,4.375,0,0,0,0,0
4.01,4.375,0,0,0,0,0
4.011,4.375,0,0,0,0,0
4.012,4.375,0,0,0,0,0
4.013,4.375,0,0,0,0,0
4.014,4.375,0,0,0,0,0
4.015,4.375,0,0,0,0,0
4.016,4.375,0,0,0,0,0
4.017,4.375,0,0,0,0,0
4.018,4.0625,0,0,0,0,0
4.019,3.75,0,0,0,0,0
4.02,4.0625,0,0,0,0,0
4.021,4.375,0,0,0,0,0
4.022,3.4375,0,0,0,0,0
4.023,3.75,0,0,0,0,0
4.024,3.75,0,0,0,0,0
4.025,3.75,0,0,0,0,0
4.026,3.75,0,0,0,0,0
4.027,3.75,0,0,0,0,0
4.028,3.75,0,0,0,0,0
4.029,3.75,0,0,0,0,0
4.03,3.75,0,0,0,0,0
4.031,3.75,0,0,0,0,0
4.032,3.4375,0,0,0,0,0
4.033,3.125,0,0,0,0,0
4.034,2.5,0,0,0,0,0
4.035,3.125,0,0,0,0,0
4.036,3.4375,0,0,0,0,0
4.037,3.75,0,0,0,0,0
4.038,3.75,0,0,0,0,0
4.039,3.75,0,0,0,0,0
4.04,4.0625,0,0,0,0,0
4.041,4.375,0,0,0,0,0
4.042,4.375,0,0,0,0,0
4.043,4.375,0,0,0,0,0
4.044,3.75,0,0,0,0,0
4.045,3.75,0,0,0,0,0
4.046,4.375,0,0,0,0,0
4.047,3.75,0,0,0,0,0
4.048,3.75,0,0,0,0,0
4.049,3.75,0,0,0,0,0
4.05,3.75,0,0,0,0,0
4.051,3.75,0,0,0,0,0
4.052,3.75,0,0,0,0,0
4.053,3.75,0,0,0,0,0
4.054,3.75,0,0,0,0,0
4.055,3.75,0,0,0,0,0
4.056,4.0625,0,0,0,0,0
4.057,4.375,0,0,0,0,0
4.058,4.0625,0,0,0,0,0
4.059,3.75,0,0,0,0,0
4.06,4.0625,0,0,0,0,0
4.061,4.375,0,0,0,0,0
4.062,4.375,0,0,0,0,0
4.063,4.375,0,0,0,0,0
4.064,4.375,0,0,0,0,0
4.065,4.375,0,0,0,0,0
4.066,4.375,0,0,0,0,0
4.067,4.375,0,0,0,0,0
4.068,4.0625,0,0,0,0,0
4.069,3.75,0,0,0,0,0
4.07,4.0625,0,0,0,0,0
4.071,4.375,0,0,0,0,0
4.072,4.375,0,0,0,0,0
4.073,3.75,0,0,0,0,0
4.074,4.0625,0,0,0,0,0
4.075,4.375,0,0,0,0,0
4.076,3.75,0,0,0,0,0
4.077,3.125,0,0,0,0,0
4.078,3.125,0,0,0,0,0
4.079,3.125,0,0,0,0,0
4.08,3.125,0,0,0,0,0
4.081,3.125,0,0,0,0,0
4.082,3.125,0,0,0,0,0
4.083,3.125,0,0,0,0,0
4.084,3.125,0,0,0,0,0
4.085,3.125,0,0,0,0,0
4.086,3.125,0,0,0,0,0
4.087,3.125,0,0,0,0,0
4.088,3.4375,0,0,0,0,0
4.089,3.75,0,0,0,0,0
4.09,4.0625,0,0,0,0,0
4.091,3.125,0,0,0,0,0
4.092,3.75,0,0,0,0,0
4.093,3.75,0,0,0,0,0
4.094,3.75,0,0,0,0,0
4.095,4.375,0,0,0,0,0
4.096,4.6875,0,0,0,0,0
4.097,5,0,0,0,0,0
4.098,4.6875,0,0,0,0,0
4.099,4.375,0,0,0,0,0
4.1,5,0,0,0,0,0
4.101,5,0,0,0,0,0
4.102,4.6875,0,0,0,0,0
4.103,5,0,0,0,0,0
4.104,5.3125,0,0,0,0,0
4.105,5.625,0,0,0,0,0
4.106,5.3125,0,0,0,0,0
4.107,5,0,0,0,0,0
4.108,5.3125,0,0,0,0,0
4.109,5,0,0,0,0,0
4.11,5.625,0,0,0,0,0
4.111,6.25,0,0,0,0,0
4.112,6.25,0,0,0,0,0
4.113,6.25,0,0,0,0,0
4.114,6.875,0,0,0,0,0
4.115,6.875,0,0,0,0,0
4.116,7.5,0,0,0,0,0
4.117,6.875,0,0,0,0,0
4.118,6.5625,0,0,0,0,0
4.119,6.25,0,0,0,0,0
4.12,6.25,0,0,0,0,0
4.121,6.25,0,0,0,0,0
4.122,6.25,0,0,0,0,0
4.123,6.25,0,0,0,0,0
4.124,6.25,0,0,0,0,0
4.125,6.25,0,0,0,0,0
4.126,6.25,0,0,0,0,0
4.127,6.875,0,0,0,0,0
4.128,6.25,0,0,0,0,0
4.129,6.25,0,0,0,0,0
4.13,5.9375,0,0,0,0,0
4.131,5.625,0,0,0,0,0
4.132,6.25,0,0,0,0,0
4.133,6.25,0,0,0,0,0
4.134,6.5625,0,0,0,0,0
4.135,6.875,0,0,0,0,0
4.136,6.875,0,0,0,0,0
4.137,6.875,0,0,0,0,0
4.138,6.875,0,0,0,0,0
4.139,6.875,0,0,0,0,0
4.14,6.5625,0,0,0,0,0
4.141,6.25,0,0,0,0,0
4.142,6.25,0,0,0,0,0
4.143,6.25,0,0,0,0,0
4.144,6.5625,0,0,0,0,0
4.145,6.875,0,0,0,0,0
4.146,6.875,0,0,0,0,0
4.147,6.875,0,0,0,0,0
4.148,6.25,0,0,0,0,0
4.149,6.25,0,0,0,0,0
4.15,5.9375,0,0,0,0,0
4.151,5.625,0,0,0,0,0
4.152,6.25,0,0,0,0,0
4.153,6.25,0,0,0,0,0
4.154,5.9375,0,0,0,0,0
4.155,6.25,0,0,0,0,0
4.156,5.9375,0,0,0,0,0
4.157,5,0,0,0,0,0
4.158,5,0,0,0,0,0
4.159,5,0,0,0,0,0
4.16,5.3125,0,0,0,0,0
4.161,5,0,0,0,0,0
4.162,5,0,0,0,0,0
4.163,5,0,0,0,0,0
4.164,5,0,0,0,0,0
4.165,4.375,0,0,0,0,0
4.166,4.0625,0,0,0,0,0
4.167,3.75,0,0,0,0,0
4.168,3.75,0,0,0,0,0
4.169,3.125,0,0,0,0,0
4.17,3.125,0,0,0,0,0
4.171,3.125,0,0,0,0,0
4.172,2.8125,0,0,0,0,0
4.173,3.75,0,0,0,0,0
4.174,2.8125,0,0,0,0,0
4.175,3.125,0,0,0,0,0
4.176,3.125,0,0,0,0,0
4.177,3.125,0,0,0,0,0
4.178,3.125,0,0,0,0,0
4.179,3.125,0,0,0,0,0
4.18,3.125,0,0,0,0,0
4.181,2.5,0,0,0,0,0
4.182,2.5,0,0,0,0,0
4.183,1.875,0,0,0,0,0
4.184,2.5,0,0,0,0,0
4.185,2.5,0,0,0,0,0
4.186,2.1875,0,0,0,0,0
4.187,1.875,0,0,0,0,0
4.188,2.1875,0,0,0,0,0
4.189,2.5,0,0,0,0,0
4.19,2.5,0,0,0,0,0
4.191,2.5,0,0,0,0,0
4.192,2.5,0,0,0,0,0
4.193,2.5,0,0,0,0,0
4.194,2.5,0,0,0,0,0
4.195,2.5,0,0,0,0,0
4.196,2.1875,0,0,0,0,0
4.197,1.875,0,0,0,0,0
4.198,1.875,0,0,0,0,0
4.199,1.875,0,0,0,0,0
4.2,1.875,0,0,0,0,0
4.201,1.875,0,0,0,0,0
4.202,2.1875,0,0,0,0,0
4.203,1.875,0,0,0,0,0
4.204,1.5625,0,0,0,0,0
4.205,1.25,0,0,0,0,0
4.206,1.875,0,0,0,0,0
4.207,1.25,0,0,0,0,0
4.208,1.5625,0,0,0,0,0
4.209,1.875,0,0,0,0,0
4.21,1.25,0,0,0,0,0
4.211,1.875,0,0,0,0,0
4.212,1.875,0,0,0,0,0
4.213,1.875,0,0,0,0,0
4.214,1.5625,0,0,0,0,0
4.215,1.25,0,0,0,0,0
4.216,1.5625,0,0,0,0,0
4.217,1.875,0,0,0,0,0
4.218,1.25,0,0,0,0,0
4.219,1.25,0,0,0,0,0
4.22,0.9375,0,0,0,0,0
4.221,0.625,0,0,0,0,0
4.222,0.625,0,0,0,0,0
4.223,0.625,0,0,0,0,0
4.224,0.3125,0,0,0,0,0
4.225,0.625,0,0,0,0,0
4.226,0.625,0,0,0,0,0
4.227,0.625,0,0,0,0,0
4.228,0.625,0,0,0,0,0
4.229,0.625,0,0,0,0,0
4.23,0,0,0,0,0,0
4.231,0.625,0,0,0,0,0
4.232,-0.3125,0,0,0,0,0
4.233,0,0,0,0,0,0
4.234,0,0,0,0,0,0
4.235,0,0,0,0,0,0
4.236,0,0,0,0,0,0
4.237,0,0,0,0,0,0
4.238,0.3125,0,0,0,0,0
4.239,0.625,0,0,0,0,0
4.24,0.625,0,0,0,0,0
4.241,0.625,0,0,0,0,0
4.242,0.625,0,0,0,0,0
4.243,0.625,0,0,0,0,0
4.244,0.9375,0,0,0,0,0
4.245,1.25,0,0,0,0,0
4.246,0.3125,0,0,0,0,0
4.247,0.625,0,0,0,0,0
4.248,0.9375,0,0,0,0,0
4.249,1.25,0,0,0,0,0
4.25,1.25,0,0,0,0,0
4.251,1.875,0,0,0,0,0
4.252,2.1875,0,0,0,0,0
4.253,2.5,0,0,0,0,0
4.254,2.5,0,0,0,0,0
4.255,2.5,0,0,0,0,0
4.256,2.1875,0,0,0,0,0
4.257,2.5,0,0,0,0,0
4.258,2.5,0,0,0,0,0
4.259,2.5,0,0,0,0,0
4.26,2.1875,1,0,0,0,0
4.261,2.5,0,0,0,0,0
4.262,2.1875,0,0,0,0,0
4.263,1.875,0,0,0,0,0
4.264,1.875,0,0,0,0,0
4.265,1.875,0,0,0,0,0
4.266,1.875,0,0,0,0,0
4.267,2.5,0,0,0,0,0
4.268,1.875,0,0,0,0,0
4.269,1.875,0,0,0,0,0
4.27,1.5625,0,0,0,0,0
4.271,1.25,0,0,0,0,0
4.272,0.9375,0,0,0,0,0
4.273,0.625,0,0,0,0,0
4.274,0.625,0,0,0,0,0
4.275,0.625,0,0,0,0,0
4.276,1.25,0,0,0,0,0
4.277,1.875,0,0,0,0,0
4.278,2.8125,0,0,0,0,0
4.279,3.125,0,0,0,0,0
4.28,4.0625,0,0,0,0,0
4.281,5,0,0,0,0,0
4.282,6.5625,0,0,0,0,0
4.283,8.125,0,0,0,0,0
4.284,9.0625,0,0,0,0,0
4.285,10.625,0,0,0,0,0
4.286,10.938,0,0,0,0,0
4.287,11.25,0,0,0,0,0
4.288,12.188,0,0,0,0,0
4.289,14.375,0,0,0,0,0
4.29,15.625,0,0,0,0,0
4.291,17.5,0,0,0,0,0
4.292,18.438,0,0,0,0,0
4.293,19.375,0,0,0,0,0
4.294,20,0,0,0,0,0
4.295,20.625,0,0,0,0,0
4.296,23.125,0,0,0,0,0
4.297,25,0,0,0,0,0
4.298,27.5,0,0,0,0,0
4.299,30,0,0,0,0,0
4.3,32.5,0,0,0,0,0
4.301,35.625,0,0,0,0,0
4.302,37.5,0,1,0,0,0
4.303,39.375,0,0,0,0,0
4.304,39.688,0,0,0,0,0
4.305,40,0,0,0,0,0
4.306,40,0,0,0,0,0
4.307,40,0,0,0,0,0
4.308,38.438,0,0,0,0,0
4.309,36.25,0,0,0,0,0
4.31,35,0,0,0,0,0
4.311,33.125,0,0,0,0,0
4.312,31.25,0,0,0,0,0
4.313,28.125,0,0,0,0,0
4.314,25.938,0,0,0,0,0
4.315,23.75,0,0,0,0,0
4.316,20.313,0,0,0,0,0
4.317,16.25,0,0,0,0,0
4.318,12.813,0,0,0,0,0
4.319,8.75,0,0,0,0,0
4.32,2.5,0,0,0,0,0
4.321,-5,0,0,0,0,0
4.322,-11.25,0,0,0,0,0
4.323,-18.125,0,0,0,0,0
4.324,-23.438,0,0,0,0,0
4.325,-27.5,0,0,0,0,0
4.326,-30,0,0,0,0,0
4.327,-31.25,0,0,0,0,0
4.328,-32.813,0,0,0,0,0
4.329,-31.875,0,0,0,0,0
4.33,-30,0,0,0,0,0
4.331,-27.5,0,0,0,0,0
4.332,-25.313,0,0,0,0,0
4.333,-21.875,0,0,0,0,0
4.334,-19.375,0,0,0,0,0
4.335,-16.875,0,0,0,0,0
4.336,-14.063,0,0,0,0,0
4.337,-13.125,0,0,0,0,0
4.338,-11.563,0,0,0,0,0
4.339,-10,0,0,0,0,0
4.34,-8.4375,0,0,0,0,0
4.341,-6.875,0,0,0,0,0
4.342,-5.3125,0,0,0,0,0
4.343,-2.5,0,0,0,0,0
4.344,-0.625,0,0,0,0,0
4.345,1.25,0,0,0,0,0
4.346,2.5,0,0,0,0,0
4.347,3.75,0,0,0,0,0
4.348,4.375,0,0,0,0,0
4.349,4.375,0,0,0,0,0
4.35,4.375,0,0,0,0,0
4.351,5.625,0,0,0,0,0
4.352,5.625,0,0,0,0,0
4.353,5.625,0,0,0,0,0
4.354,5.9375,0,0,0,0,0
4.355,5.625,0,0,0,0,0
4.356,6.5625,0,0,0,0,0
4.357,6.875,0,0,0,0,0
4.358,6.875,0,0,0,0,0
4.359,6.875,0,0,0,0,0
4.36,6.875,0,0,0,0,0
4.361,6.875,0,0,0,0,0
4.362,6.875,0,0,0,0,0
4.363,6.875,0,0,0,0,0
4.364,7.1875,0,0,0,0,0
4.365,6.875,0,0,0,0,0
4.366,7.1875,0,0,0,0,0
4.367,6.875,0,0,0,0,0
4.368,6.25,0,0,0,0,0
4.369,5,0,0,0,0,0
4.37,5,0,0,0,0,0
4.371,5,0,0,0,0,0
4.372,4.6875,0,0,0,0,0
4.373,4.375,0,0,0,0,0
4.374,3.4375,0,0,0,0,0
4.375,3.125,0,0,0,0,0
4.376,2.8125,0,0,0,0,0
4.377,3.125,0,0,0,0,0
4.378,3.4375,0,0,0,0,0
4.379,3.125,0,0,0,0,0
4.38,3.125,0,0,0,0,0
4.381,3.125,0,0,0,0,0
4.382,2.1875,0,0,0,0,0
4.383,1.875,0,0,0,0,0
4.384,1.25,0,0,0,0,0
4.385,1.25,0,0,0,0,0
4.386,1.25,0,0,0,0,0
4.387,0.625,0,0,0,0,0
4.388,0,0,0,0,0,0
4.389,-0.625,0,0,0,0,0
4.39,-0.3125,0,0,0,0,0
4.391,-0.625,0,0,0,0,0
4.392,-0.9375,0,0,0,0,0
4.393,-1.875,0,0,0,0,0
4.394,-2.1875,0,0,0,0,0
4.395,-2.5,0,0,0,0,0
4.396,-2.1875,0,0,0,0,0
4.397,-1.875,0,0,0,0,0
4.398,-2.5,0,0,0,0,0
4.399,-2.5,0,0,0,0,0
4.4,-3.125,0,0,0,0,0
4.401,-3.125,0,0,0,0,0
4.402,-3.125,0,0,0,0,0
4.403,-3.125,0,0,0,0,0
4.404,-3.125,0,0,0,0,0
4.405,-3.125,0,0,0,0,0
4.406,-3.125,0,0,0,0,0
4.407,-3.125,0,0,0,0,0
4.408,-3.125,0,0,0,0,0
4.409,-3.125,0,0,0,0,0
4.41,-2.8125,0,0,0,0,0
4.411,-3.125,0,0,0,0,0
4.412,-3.4375,0,0,0,0,0
4.413,-3.75,0,0,0,0,0
4.414,-3.125,0,0,0,0,0
4.415,-3.125,0,0,0,0,0
4.416,-3.125,0,0,0,0,0
4.417,-3.75,0,0,0,0,0
4.418,-3.75,0,0,0,0,0
4.419,-3.75,0,0,0,0,0
4.42,-3.4375,0,0,0,0,0
4.421,-3.75,0,0,0,0,0
4.422,-3.125,0,0,0,0,0
4.423,-2.5,0,0,0,0,0
4.424,-2.8125,0,0,0,0,0
4.425,-3.125,0,0,0,0,0
4.426,-3.125,0,0,0,0,0
4.427,-3.125,0,0,0,0,0
4.428,-2.8125,0,0,0,0,0
4.429,-1.875,0,0,0,0,0
4.43,-1.875,0,0,0,0,0
4.431,-1.25,0,0,0,0,0
4.432,-1.5625,0,0,0,0,0
4.433,-1.25,0,0,0,0,0
4.434,-0.9375,0,0,1,0,0
4.435,0,0,0,0,0,0
4.436,0.3125,0,0,0,0,0
4.437,0.625,0,0,0,0,0
4.438,0.3125,0,0,0,0,0
4.439,0,0,0,0,0,0
4.44,0,0,0,0,0,0
4.441,0,0,0,0,0,0
4.442,-0.625,0,0,0,0,0
4.443,0,0,0,0,0,0
4.444,-0.9375,0,0,0,0,0
4.445,-0.625,0,0,0,0,0
4.446,-0.625,0,0,0,0,0
4.447,-0.625,0,0,0,0,0
4.448,-0.625,0,0,0,0,0
4.449,-1.25,0,0,0,0,0
4.45,-1.25,0,0,0,0,0
4.451,-1.875,0,0,0,0,0
4.452,-1.5625,0,0,0,0,0
4.453,-1.25,0,0,0,0,0
4.454,-1.25,0,0,0,0,0
4.455,-1.25,0,0,0,0,0
4.456,-1.25,0,0,0,0,0
4.457,-1.25,0,0,0,0,0
4.458,-1.25,0,0,0,0,0
4.459,-1.25,0,0,0,0,0
4.46,-1.25,0,0,0,0,0
4.461,-1.25,0,0,0,0,0
4.462,-0.9375,0,0,0,0,0
4.463,-0.625,0,0,0,0,0
4.464,-1.25,0,0,0,0,0
4.465,-0.625,0,0,0,0,0
4.466,-0.3125,0,0,0,0,0
4.467,0,0,0,0,0,0
4.468,0,0,0,0,0,0
4.469,-0.625,0,0,0,0,0
4.47,0.3125,0,0,0,0,0
4.471,0.625,0,0,0,0,0
4.472,0.3125,0,0,0,0,0
4.473,-0.625,0,0,0,0,0
4.474,0.3125,0,0,0,0,0
4.475,0,0,0,0,0,0
4.476,0.625,0,0,0,0,0
4.477,0.625,0,0,0,0,0
4.478,0.625,0,0,0,0,0
4.479,0.625,0,0,0,0,0
4.48,-0.3125,0,0,0,0,0
4.481,-1.25,0,0,0,0,0
4.482,-0.9375,0,0,0,0,0
4.483,-0.625,0,0,0,0,0
4.484,-0.625,0,0,0,0,0
4.485,-0.625,0,0,0,0,0
4.486,-0.9375,0,0,0,0,0
4.487,-1.25,0,0,0,0,0
4.488,-1.25,0,0,0,0,0
4.489,-1.25,0,0,0,0,0
4.49,-0.9375,0,0,0,0,0
4.491,-0.625,0,0,0,0,0
4.492,-0.625,0,0,0,0,0
4.493,-0.625,0,0,0,0,0
4.494,-0.3125,0,0,0,0,0
4.495,0,0,0,0,0,0
4.496,-0.3125,0,0,0,0,0
4.497,-0.625,0,0,0,0,0
4.498,-0.3125,0,0,0,0,0
4.499,0,0,0,0,0,0
4.5,-0.3125,0,0,0,0,0
4.501,-0.625,0,0,0,0,0
4.502,-0.9375,0,0,0,0,0
4.503,-0.625,0,0,0,0,0
4.504,-0.625,0,0,0,0,0
4.505,-0.625,0,0,0,0,0
4.506,-0.625,0,0,0,0,0
4.507,-0.625,0,0,0,0,0
4.508,-0.9375,0,0,0,0,0
4.509,-1.25,0,0,0,0,0
4.51,-0.9375,0,0,0,0,0
4.511,-1.25,0,0,0,0,0
4.512,-1.25,0,0,0,0,0
4.513,-1.25,0,0,0,0,0
4.514,-1.5625,0,0,0,0,0
4.515,-1.875,0,0,0,0,0
4.516,-2.1875,0,0,0,0,0
4.517,-2.5,0,0,0,0,0
4.518,-2.1875,0,0,0,0,0
4.519,-1.875,0,0,0,0,0
4.52,-1.875,0,0,0,0,0
4.521,-2.5,0,0,0,0,0
4.522,-2.5,0,0,0,0,0
4.523,-2.5,0,0,0,0,0
4.524,-2.1875,0,0,0,0,0
4.525,-1.875,0,0,0,0,0
4.526,-1.5625,0,0,0,0,0
4.527,-1.875,0,0,0,0,0
4.528,-2.8125,0,0,0,0,0
4.529,-2.5,0,0,0,0,0
4.53,-2.5,0,0,0,0,0
4.531,-3.125,0,0,0,0,0
4.532,-3.125,0,0,0,0,0
4.533,-3.125,0,0,0,0,0
4.534,-3.125,0,0,0,0,0
4.535,-3.125,0,0,0,0,0
4.536,-2.8125,0,0,0,0,0
4.537,-3.125,0,0,0,0,0
4.538,-3.4375,0,0,0,0,0
4.539,-3.75,0,0,0,0,0
4.54,-4.0625,0,0,0,0,0
4.541,-4.375,0,0,0,0,0
4.542,-5,0,0,0,0,0
4.543,-5,0,0,0,0,0
4.544,-5,0,0,0,0,0
4.545,-5.625,0,0,0,0,0
4.546,-4.6875,0,0,0,0,0
4.547,-5,0,0,0,0,0
4.548,-5,0,0,0,0,0
4.549,-5,0,0,0,0,0
4.55,-5.3125,0,0,0,0,0
4.551,-5,0,0,0,0,0
4.552,-5,0,0,0,0,0
4.553,-5.625,0,0,0,0,0
4.554,-5.625,0,0,0,0,0
4.555,-5.625,0,0,0,0,0
4.556,-6.5625,0,0,0,0,0
4.557,-6.875,0,0,0,0,0
4.558,-7.1875,0,0,0,0,0
4.559,-7.5,0,0,0,0,0
4.56,-6.875,0,0,0,0,0
4.561,-6.875,0,0,0,0,0
4.562,-7.1875,0,0,0,0,0
4.563,-7.5,0,0,0,0,0
4.564,-8.125,0,0,0,0,0
4.565,-8.125,0,0,0,0,0
4.566,-7.8125,0,0,0,0,0
4.567,-8.125,0,0,0,0,0
4.568,-8.4375,0,0,0,0,0
4.569,-8.75,0,0,0,0,0
4.57,-8.75,0,0,0,0,0
4.571,-8.75,0,0,0,0,0
4.572,-8.4375,0,0,0,0,0
4.573,-8.75,0,0,0,0,0
4.574,-9.0625,0,0,0,0,0
4.575,-9.375,0,0,0,0,0
4.576,-9.6875,0,0,0,0,0
4.577,-10,0,0,0,0,0
4.578,-9.6875,0,0,0,0,0
4.579,-10,0,0,0,0,0
4.58,-10,0,0,0,0,0
4.581,-10,0,0,0,0,0
4.582,-10.313,0,0,0,0,0
4.583,-10.625,0,0,0,0,0
4.584,-10.625,0,0,0,0,0
4.585,-10.625,0,0,0,0,0
4.586,-10.313,0,0,0,0,0
4.587,-10.625,0,0,0,1,0
4.588,-10.625,0,0,0,0,0
4.589,-10.625,0,0,0,0,0
4.59,-10.938,0,0,0,0,0
4.591,-11.25,0,0,0,0,0
4.592,-11.25,0,0,0,0,0
4.593,-11.25,0,0,0,0,0
4.594,-10.938,0,0,0,0,0
4.595,-11.25,0,0,0,0,0
4.596,-11.25,0,0,0,0,0
4.597,-11.25,0,0,0,0,0
4.598,-10.938,0,0,0,0,0
4.599,-10.625,0,0,0,0,0
4.6,-10.625,0,0,0,0,0
4.601,-10.625,0,0,0,0,0
4.602,-10.625,0,0,0,0,0
4.603,-10.625,0,0,0,0,0
4.604,-10,0,0,0,0,0
4.605,-10,0,0,0,0,0
4.606,-9.6875,0,0,0,0,0
4.607,-8.75,0,0,0,0,0
4.608,-10,0,0,0,0,0
4.609,-10,0,0,0,0,0
4.61,-10.313,0,0,0,0,0
4.611,-10,0,0,0,0,0
4.612,-10,0,0,0,0,0
4.613,-10,0,0,0,0,0
4.614,-9.6875,0,0,0,0,0
4.615,-8.75,0,0,0,0,0
4.616,-8.4375,0,0,0,0,0
4.617,-7.5,0,0,0,0,0
4.618,-7.8125,0,0,0,0,0
4.619,-7.5,0,0,0,0,0
4.62,-7.1875,0,0,0,0,0
4.621,-6.875,0,0,0,0,0
4.622,-7.1875,0,0,0,0,0
4.623,-6.875,0,0,0,0,0
4.624,-6.875,0,0,0,0,0
4.625,-6.25,0,0,0,0,0
4.626,-6.25,0,0,0,0,0
4.627,-5.625,0,0,0,0,0
4.628,-5.625,0,0,0,0,0
4.629,-5,0,0,0,0,0
4.63,-5,0,0,0,0,0
4.631,-3.75,0,0,0,0,0
4.632,-3.75,0,0,0,0,0
4.633,-3.125,0,0,0,0,0
4.634,-3.125,0,0,0,0,0
4.635,-3.125,0,0,0,0,0
4.636,-2.5,0,0,0,0,0
4.637,-2.5,0,0,0,0,0
4.638,-2.5,0,0,0,0,0
4.639,-1.875,0,0,0,0,0
4.64,-1.875,0,0,0,0,0
4.641,-1.875,0,0,0,0,0
4.642,-0.9375,0,0,0,0,0
4.643,-0.625,0,0,0,0,0
4.644,0,0,0,0,0,0
4.645,0,0,0,0,0,0
4.646,0,0,0,0,0,0
4.647,0.625,0,0,0,0,0
4.648,0.625,0,0,0,0,0
4.649,0.625,0,0,0,0,0
4.65,1.25,0,0,0,0,0
4.651,1.875,0,0,0,0,0
4.652,1.875,0,0,0,0,0
4.653,1.875,0,0,0,0,0
4.654,1.5625,0,0,0,0,0
4.655,1.875,0,0,0,0,0
4.656,1.5625,0,0,0,0,0
4.657,1.25,0,0,0,0,0
4.658,1.875,0,0,0,0,0
4.659,1.875,0,0,0,0,0
4.66,2.1875,0,0,0,0,0
4.661,2.5,0,0,0,0,0
4.662,2.1875,0,0,0,0,0
4.663,2.5,0,0,0,0,0
4.664,2.8125,0,0,0,0,0
4.665,3.125,0,0,0,0,0
4.666,3.75,0,0,0,0,0
4.667,3.125,0,0,0,0,0
4.668,4.0625,0,0,0,0,0
4.669,3.75,0,0,0,0,0
4.67,4.375,0,0,0,0,0
4.671,4.375,0,0,0,0,0
4.672,4.0625,0,0,0,0,0
4.673,3.75,0,0,0,0,0
4.674,3.75,0,0,0,0,0
4.675,3.75,0,0,0,0,0
4.676,4.0625,0,0,0,0,0
4.677,4.375,0,0,0,0,0
4.678,4.375,0,0,0,0,0
4.679,4.375,0,0,0,0,0
4.68,4.375,0,0,0,0,0
4.681,4.375,0,0,0,0,0
4.682,4.0625,0,0,0,0,0
4.683,3.75,0,0,0,0,0
4.684,4.0625,0,0,0,0,0
4.685,4.375,0,0,0,0,0
4.686,4.0625,0,0,0,0,0
4.687,3.75,0,0,0,0,0
4.688,4.0625,0,0,0,0,0
4.689,3.75,0,0,0,0,0
4.69,3.4375,0,0,0,0,0
4.691,3.75,0,0,0,0,0
4.692,3.4375,0,0,0,0,0
4.693,3.75,0,0,0,0,0
4.694,3.75,0,0,0,0,0
4.695,3.125,0,0,0,0,0
4.696,3.125,0,0,0,0,0
4.697,3.125,0,0,0,0,0
4.698,3.4375,0,0,0,0,0
4.699,3.125,0,0,0,0,0
4.7,3.4375,0,0,0,0,0
4.701,3.125,0,0,0,0,0
4.702,3.125,0,0,0,0,0
4.703,3.125,0,0,0,0,0
4.704,3.125,0,0,0,0,0
4.705,3.125,0,0,0,0,0
4.706,2.8125,0,0,0,0,0
4.707,3.125,0,0,0,0,0
4.708,2.8125,0,0,0,0,0
4.709,2.5,0,0,0,0,1
4.71,2.5,0,0,0,0,0
4.711,2.5,0,0,0,0,0
4.712,2.1875,0,0,0,0,0
4.713,1.875,0,0,0,0,0
4.714,2.1875,0,0,0,0,0
4.715,2.5,0,0,0,0,0
4.716,2.1875,0,0,0,0,0
4.717,1.875,0,0,0,0,0
4.718,2.1875,0,0,0,0,0
4.719,2.5,0,0,0,0,0
4.72,2.5,0,0,0,0,0
4.721,2.5,0,0,0,0,0
4.722,2.1875,0,0,0,0,0
4.723,1.875,0,0,0,0,0
4.724,1.875,0,0,0,0,0
4.725,2.5,0,0,0,0,0
4.726,2.1875,0,0,0,0,0
4.727,2.5,0,0,0,0,0
4.728,2.5,0,0,0,0,0
4.729,2.5,0,0,0,0,0
4.73,2.1875,0,0,0,0,0
4.731,1.875,0,0,0,0,0
4.732,1.875,0,0,0,0,0
4.733,1.875,0,0,0,0,0
4.734,1.875,0,0,0,0,0
4.735,1.875,0,0,0,0,0
4.736,1.875,0,0,0,0,0
4.737,1.875,0,0,0,0,0
4.738,1.875,0,0,0,0,0
4.739,1.875,0,0,0,0,0
4.74,2.1875,0,0,0,0,0
4.741,2.5,0,0,0,0,0
4.742,2.8125,0,0,0,0,0
4.743,3.125,0,0,0,0,0
4.744,2.5,0,0,0,0,0
4.745,1.875,0,0,0,0,0
4.746,2.5,0,0,0,0,0
4.747,2.5,0,0,0,0,0
4.748,1.875,0,0,0,0,0
4.749,1.875,0,0,0,0,0
4.75,1.875,0,0,0,0,0
4.751,2.5,0,0,0,0,0
4.752,2.8125,0,0,0,0,0
4.753,2.5,0,0,0,0,0
4.754,2.5,0,0,0,0,0
4.755,3.125,0,0,0,0,0
4.756,3.125,0,0,0,0,0
4.757,3.75,0,0,0,0,0
4.758,3.4375,0,0,0,0,0
4.759,3.75,0,0,0,0,0
4.76,3.4375,0,0,0,0,0
4.761,3.125,0,0,0,0,0
4.762,3.125,0,0,0,0,0
4.763,3.125,0,0,0,0,0
4.764,3.125,0,0,0,0,0
4.765,3.125,0,0,0,0,0
4.766,2.8125,0,0,0,0,0
4.767,3.125,0,0,0,0,0
4.768,3.125,0,0,0,0,0
4.769,3.125,0,0,0,0,0
4.77,2.8125,0,0,0,0,0
4.771,2.5,0,0,0,0,0
4.772,2.1875,0,0,0,0,0
4.773,1.875,0,0,0,0,0
4.774,1.875,0,0,0,0,0
4.775,2.5,0,0,0,0,0
4.776,2.8125,0,0,0,0,0
4.777,2.5,0,0,0,0,0
4.778,3.125,0,0,0,0,0
4.779,3.125,0,0,0,0,0
4.78,2.5,0,0,0,0,0
4.781,2.5,0,0,0,0,0
4.782,2.8125,0,0,0,0,0
4.783,3.125,0,0,0,0,0
4.784,2.8125,0,0,0,0,0
4.785,2.5,0,0,0,0,0
4.786,2.5,0,0,0,0,0
4.787,2.5,0,0,0,0,0
4.788,2.5,0,0,0,0,0
4.789,2.5,0,0,0,0,0
4.79,2.5,0,0,0,0,0
4.791,2.5,0,0,0,0,0
4.792,2.5,0,0,0,0,0
4.793,2.5,0,0,0,0,0
4.794,2.8125,0,0,0,0,0
4.795,3.125,0,0,0,0,0
4.796,3.125,0,0,0,0,0
4.797,3.125,0,0,0,0,0
4.798,2.8125,0,0,0,0,0
4.799,2.5,0,0,0,0,0
4.8,2.1875,0,0,0,0,0
4.801,1.875,0,0,0,0,0
4.802,2.1875,0,0,0,0,0
4.803,2.5,0,0,0,0,0
4.804,2.5,0,0,0,0,0
4.805,2.5,0,0,0,0,0
4.806,2.1875,0,0,0,0,0
4.807,1.875,0,0,0,0,0
4.808,2.1875,0,0,0,0,0
4.809,2.5,0,0,0,0,0
4.81,1.5625,0,0,0,0,0
4.811,1.875,0,0,0,0,0
4.812,2.1875,0,0,0,0,0
4.813,2.5,0,0,0,0,0
4.814,2.5,0,0,0,0,0
4.815,2.5,0,0,0,0,0
4.816,2.8125,0,0,0,0,0
4.817,3.125,0,0,0,0,0
4.818,2.8125,0,0,0,0,0
4.819,2.5,0,0,0,0,0
4.82,2.1875,0,0,0,0,0
4.821,1.875,0,0,0,0,0
4.822,0.9375,0,0,0,0,0
4.823,1.25,0,0,0,0,0
4.824,1.25,0,0,0,0,0
4.825,1.25,0,0,0,0,0
4.826,0.9375,0,0,0,0,0
4.827,0.625,0,0,0,0,0
4.828,1.25,0,0,0,0,0
4.829,1.875,0,0,0,0,0
4.83,1.875,0,0,0,0,0
4.831,1.875,0,0,0,0,0
4.832,1.25,0,0,0,0,0
4.833,1.25,0,0,0,0,0
4.834,2.1875,0,0,0,0,0
4.835,1.875,0,0,0,0,0
4.836,1.5625,0,0,0,0,0
4.837,1.25,0,0,0,0,0
4.838,1.25,0,0,0,0,0
4.839,1.25,0,0,0,0,0
4.84,1.25,0,0,0,0,0
4.841,1.25,0,0,0,0,0
4.842,1.5625,0,0,0,0,0
4.843,1.875,0,0,0,0,0
4.844,1.875,0,0,0,0,0
4.845,1.875,0,0,0,0,0
4.846,1.5625,0,0,0,0,0
4.847,1.25,0,0,0,0,0
4.848,1.25,0,0,0,0,0
4.849,1.25,0,0,0,0,0
4.85,1.25,0,0,0,0,0
4.851,1.25,0,0,0,0,0
4.852,1.25,0,0,0,0,0
4.853,1.25,0,0,0,0,0
4.854,1.5625,0,0,0,0,0
4.855,1.875,0,0,0,0,0
4.856,1.875,0,0,0,0,0
4.857,1.875,0,0,0,0,0
4.858,1.875,0,0,0,0,0
4.859,1.875,0,0,0,0,0
4.86,1.875,0,0,0,0,0
4.861,1.875,0,0,0,0,0
4.862,1.875,0,0,0,0,0
4.863,1.875,0,0,0,0,0
4.864,1.875,0,0,0,0,0
4.865,1.875,0,0,0,0,0
4.866,1.5625,0,0,0,0,0
4.867,1.25,0,0,0,0,0
4.868,1.25,0,0,0,0,0
4.869,1.25,0,0,0,0,0
4.87,1.5625,0,0,0,0,0
4.871,1.875,0,0,0,0,0
4.872,1.5625,0,0,0,0,0
4.873,1.25,0,0,0,0,0
4.874,1.25,0,0,0,0,0
4.875,1.25,0,0,0,0,0
4.876,1.5625,0,0,0,0,0
4.877,1.875,0,0,0,0,0
4.878,1.875,0,0,0,0,0
4.879,2.5,0,0,0,0,0
4.88,1.5625,0,0,0,0,0
4.881,1.875,0,0,0,0,0
4.882,1.5625,0,0,0,0,0
4.883,1.25,0,0,0,0,0
4.884,2.1875,0,0,0,0,0
4.885,2.5,0,0,0,0,0
4.886,2.8125,0,0,0,0,0
4.887,3.125,0,0,0,0,0
4.888,2.5,0,0,0,0,0
4.889,2.5,0,0,0,0,0
4.89,2.1875,0,0,0,0,0
4.891,1.875,0,0,0,0,0
4.892,2.5,0,0,0,0,0
4.893,2.5,0,0,0,0,0
4.894,2.8125,0,0,0,0,0
4.895,3.125,0,0,0,0,0
4.896,3.125,0,0,0,0,0
4.897,3.75,0,0,0,0,0
4.898,4.0625,0,0,0,0,0
4.899,4.375,0,0,0,0,0
4.9,4.375,0,0,0,0,0
4.901,4.375,0,0,0,0,0
4.902,4.375,0,0,0,0,0
4.903,5,0,0,0,0,0
4.904,5,0,0,0,0,0
4.905,5.625,0,0,0,0,0
4.906,5.3125,0,0,0,0,0
4.907,5.625,0,0,0,0,0
4.908,5.3125,0,0,0,0,0
4.909,5,0,0,0,0,0
4.91,5.3125,0,0,0,0,0
4.911,5.625,0,0,0,0,0
4.912,5.3125,0,0,0,0,0
4.913,5,0,0,0,0,0
4.914,5,0,0,0,0,0
4.915,5,0,0,0,0,0
4.916,5.625,0,0,0,0,0
4.917,5,0,0,0,0,0
4.918,5.3125,0,0,0,0,0
4.919,5.625,0,0,0,0,0
4.92,5.625,0,0,0,0,0
4.921,6.25,0,0,0,0,0
4.922,6.25,0,0,0,0,0
4.923,6.25,0,0,0,0,0
4.924,6.5625,0,0,0,0,0
4.925,6.875,0,0,0,0,0
4.926,6.5625,0,0,0,0,0
4.927,6.25,0,0,0,0,0
4.928,6.25,0,0,0,0,0
4.929,6.25,0,0,0,0,0
4.93,5.9375,0,0,0,0,0
4.931,5.625,0,0,0,0,0
4.932,5.625,0,0,0,0,0
4.933,5.625,0,0,0,0,0
4.934,5.3125,0,0,0,0,0
4.935,5,0,0,0,0,0
4.936,5.625,0,0,0,0,0
4.937,5.625,0,0,0,0,0
4.938,5.625,0,0,0,0,0
4.939,5.625,0,0,0,0,0
4.94,5.9375,0,0,0,0,0
4.941,6.25,0,0,0,0,0
4.942,5.9375,0,0,0,0,0
4.943,5.625,0,0,0,0,0
4.944,5,0,0,0,0,0
4.945,4.375,0,0,0,0,0
4.946,3.4375,0,0,0,0,0
4.947,3.125,0,0,0,0,0
4.948,3.4375,0,0,0,0,0
4.949,3.75,0,0,0,0,0
4.95,3.125,0,0,0,0,0
4.951,3.125,0,0,0,0,0
4.952,3.4375,0,0,0,0,0
4.953,3.75,0,0,0,0,0
4.954,3.125,0,0,0,0,0
4.955,3.125,0,0,0,0,0
4.956,3.125,0,0,0,0,0
4.957,3.125,0,0,0,0,0
4.958,2.1875,0,0,0,0,0
4.959,1.875,0,0,0,0,0
4.96,1.5625,0,0,0,0,0
4.961,0.625,0,0,0,0,0
4.962,1.5625,0,0,0,0,0
4.963,1.25,0,0,0,0,0
4.964,1.875,0,0,0,0,0
4.965,1.875,0,0,0,0,0
4.966,2.1875,0,0,0,0,0
4.967,2.5,0,0,0,0,0
4.968,2.5,0,0,0,0,0
4.969,2.5,0,0,0,0,0
4.97,1.5625,0,0,0,0,0
4.971,1.25,0,0,0,0,0
4.972,0.625,0,0,0,0,0
4.973,1.25,0,0,0,0,0
4.974,1.25,0,0,0,0,0
4.975,1.25,0,0,0,0,0
4.976,1.25,0,0,0,0,0
4.977,1.25,0,0,0,0,0
4.978,0.9375,0,0,0,0,0
4.979,0.625,0,0,0,0,0
4.98,0.625,0,0,0,0,0
4.981,0.625,0,0,0,0,0
4.982,0.625,0,0,0,0,0
4.983,0.625,0,0,0,0,0
4.984,0.9375,0,0,0,0,0
4.985,1.25,0,0,0,0,0
4.986,0.9375,0,0,0,0,0
4.987,0.625,0,0,0,0,0
4.988,0.625,0,0,0,0,0
4.989,0.625,0,0,0,0,0
4.99,0.625,0,0,0,0,0
4.991,0.625,0,0,0,0,0
4.992,0,0,0,0,0,0
4.993,0,0,0,0,0,0
4.994,0,0,0,0,0,0
4.995,0.625,0,0,0,0,0
4.996,0,0,0,0,0,0
4.997,0,0,0,0,0,0
4.998,0,0,0,0,0,0
4.999,-0.625,0,0,0,0,0
5,0,0,0,0,0,0
5.001,0,0,0,0,0,0
5.002,0,0,0,0,0,0
5.003,0,0,0,0,0,0
5.004,0,0,0,0,0,0
5.005,0,0,0,0,0,0
5.006,0.3125,0,0,0,0,0
5.007,0,0,0,0,0,0
5.008,0,0,0,0,0,0
5.009,0,0,0,0,0,0
5.01,-0.3125,0,0,0,0,0
5.011,-0.625,0,0,0,0,0
5.012,-0.625,0,0,0,0,0
5.013,-0.625,0,0,0,0,0
5.014,0,0,0,0,0,0
5.015,0,0,0,0,0,0
5.016,0,0,0,0,0,0
5.017,0,0,0,0,0,0
5.018,0,0,0,0,0,0
5.019,-0.625,0,0,0,0,0
5.02,0,0,0,0,0,0
5.021,-0.625,0,0,0,0,0
5.022,0.3125,0,0,0,0,0
5.023,0.625,0,0,0,0,0
5.024,0.625,0,0,0,0,0
5.025,0.625,0,0,0,0,0
5.026,0.625,0,0,0,0,0
5.027,0.625,0,0,0,0,0
5.028,0.625,0,0,0,0,0
5.029,0.625,0,0,0,0,0
5.03,0.9375,0,0,0,0,0
5.031,1.25,0,0,0,0,0
5.032,0.9375,0,0,0,0,0
5.033,0.625,0,0,0,0,0
5.034,0.9375,0,0,0,0,0
5.035,0.625,0,0,0,0,0
5.036,0.9375,0,0,0,0,0
5.037,0.625,0,0,0,0,0
5.038,0.625,0,0,0,0,0
5.039,0.625,0,0,0,0,0
5.04,1.25,0,0,0,0,0
5.041,1.25,0,0,0,0,0
5.042,0.9375,0,0,0,0,0
5.043,0.625,0,0,0,0,0
5.044,0.625,0,0,0,0,0
5.045,0.625,0,0,0,0,0
5.046,0.9375,0,0,0,0,0
5.047,0.625,0,0,0,0,0
5.048,0.9375,0,0,0,0,0
5.049,0.625,0,0,0,0,0
5.05,0.9375,0,0,0,0,0
5.051,1.25,0,0,0,0,0
5.052,1.25,1,0,0,0,0
5.053,1.25,0,0,0,0,0
5.054,0.9375,0,0,0,0,0
5.055,0.625,0,0,0,0,0
5.056,1.25,0,0,0,0,0
5.057,0.625,0,0,0,0,0
5.058,0.9375,0,0,0,0,0
5.059,1.25,0,0,0,0,0
5.06,1.5625,0,0,0,0,0
5.061,1.875,0,0,0,0,0
5.062,1.875,0,0,0,0,0
5.063,1.875,0,0,0,0,0
5.064,1.5625,0,0,0,0,0
5.065,1.875,0,0,0,0,0
5.066,1.875,0,0,0,0,0
5.067,1.875,0,0,0,0,0
5.068,1.875,0,0,0,0,0
5.069,2.5,0,0,0,0,0
5.07,2.5,0,0,0,0,0
5.071,3.125,0,0,0,0,0
5.072,4.0625,0,0,0,0,0
5.073,5,0,0,0,0,0
5.074,7.5,0,0,0,0,0
5.075,8.75,0,0,0,0,0
5.076,9.375,0,0,0,0,0
5.077,10,0,0,0,0,0
5.078,11.563,0,0,0,0,0
5.079,12.5,0,0,0,0,0
5.08,14.688,0,0,0,0,0
5.081,15.625,0,0,0,0,0
5.082,15.938,0,0,0,0,0
5.083,16.875,0,0,0,0,0
5.084,18.125,0,0,0,0,0
5.085,20,0,0,0,0,0
5.086,20.625,0,0,0,0,0
5.087,21.875,0,0,0,0,0
5.088,23.75,0,0,0,0,0
5.089,26.25,0,0,0,0,0
5.09,29.375,0,0,0,0,0
5.091,31.875,0,0,0,0,0
5.092,35,0,0,0,0,0
5.093,36.25,0,0,0,0,0
5.094,36.875,0,0,0,0,0
5.095,36.875,0,1,0,0,0
5.096,37.5,0,0,0,0,0
5.097,36.875,0,0,0,0,0
5.098,35.313,0,0,0,0,0
5.099,34.375,0,0,0,0,0
5.1,32.188,0,0,0,0,0
5.101,31.25,0,0,0,0,0
5.102,29.375,0,0,0,0,0
5.103,26.875,0,0,0,0,0
5.104,25,0,0,0,0,0
5.105,23.125,0,0,0,0,0
5.106,20.625,0,0,0,0,0
5.107,17.5,0,0,0,0,0
5.108,14.375,0,0,0,0,0
5.109,11.25,0,0,0,0,0
5.11,7.1875,0,0,0,0,0
5.111,1.875,0,0,0,0,0
5.112,-6.25,0,0,0,0,0
5.113,-13.125,0,0,0,0,0
5.114,-18.75,0,0,0,0,0
5.115,-23.125,0,0,0,0,0
5.116,-26.563,0,0,0,0,0
5.117,-29.375,0,0,0,0,0
5.118,-29.688,0,0,0,0,0
5.119,-30,0,0,0,0,0
5.12,-30,0,0,0,0,0
5.121,-29.375,0,0,0,0,0
5.122,-26.25,0,0,0,0,0
5.123,-23.125,0,0,0,0,0
5.124,-19.063,0,0,0,0,0
5.125,-15.625,0,0,0,0,0
5.126,-14.688,0,0,0,0,0
5.127,-13.125,0,0,0,0,0
5.128,-11.875,0,0,0,0,0
5.129,-10,0,0,0,0,0
5.13,-8.125,0,0,0,0,0
5.131,-6.875,0,0,0,0,0
5.132,-4.6875,0,0,0,0,0
5.133,-3.125,0,0,0,0,0
5.134,-1.5625,0,0,0,0,0
5.135,0,0,0,0,0,0
5.136,2.5,0,0,0,0,0
5.137,4.375,0,0,0,0,0
5.138,5.3125,0,0,0,0,0
5.139,5.625,0,0,0,0,0
5.14,6.875,0,0,0,0,0
5.141,6.875,0,0,0,0,0
5.142,7.1875,0,0,0,0,0
5.143,7.5,0,0,0,0,0
5.144,6.25,0,0,0,0,0
5.145,6.25,0,0,0,0,0
5.146,6.5625,0,0,0,0,0
5.147,6.875,0,0,0,0,0
5.148,6.5625,0,0,0,0,0
5.149,6.25,0,0,0,0,0
5.15,6.5625,0,0,0,0,0
5.151,6.875,0,0,0,0,0
5.152,6.25,0,0,0,0,0
5.153,6.25,0,0,0,0,0
5.154,6.875,0,0,0,0,0
5.155,7.5,0,0,0,0,0
5.156,7.5,0,0,0,0,0
5.157,8.125,0,0,0,0,0
5.158,7.5,0,0,0,0,0
5.159,7.5,0,0,0,0,0
5.16,7.5,0,0,0,0,0
5.161,6.875,0,0,0,0,0
5.162,5.9375,0,0,0,0,0
5.163,5,0,0,0,0,0
5.164,4.6875,0,0,0,0,0
5.165,3.75,0,0,0,0,0
5.166,4.0625,0,0,0,0,0
5.167,4.375,0,0,0,0,0
5.168,4.0625,0,0,0,0,0
5.169,4.375,0,0,0,0,0
5.17,4.0625,0,0,0,0,0
5.171,3.125,0,0,0,0,0
5.172,3.4375,0,0,0,0,0
5.173,3.125,0,0,0,0,0
5.174,2.8125,0,0,0,0,0
5.175,2.5,0,0,0,0,0
5.176,1.875,0,0,0,0,0
5.177,1.25,0,0,0,0,0
5.178,0.9375,0,0,0,0,0
5.179,1.25,0,0,0,0,0
5.18,0.625,0,0,0,0,0
5.181,0.625,0,0,0,0,0
5.182,0,0,0,0,0,0
5.183,0,0,0,0,0,0
5.184,-0.3125,0,0,0,0,0
5.185,-0.625,0,0,0,0,0
5.186,-0.3125,0,0,0,0,0
5.187,-0.625,0,0,0,0,0
5.188,-0.3125,0,0,0,0,0
5.189,-0.625,0,0,0,0,0
5.19,-0.9375,0,0,0,0,0
5.191,-1.25,0,0,0,0,0
5.192,-0.9375,0,0,0,0,0
5.193,-0.625,0,0,0,0,0
5.194,-1.25,0,0,0,0,0
5.195,-1.875,0,0,0,0,0
5.196,-1.5625,0,0,0,0,0
5.197,-1.25,0,0,0,0,0
5.198,-1.5625,0,0,0,0,0
5.199,-1.25,0,0,0,0,0
5.2,-1.25,0,0,0,0,0
5.201,-1.25,0,0,0,0,0
5.202,-1.25,0,0,0,0,0
5.203,-0.625,0,0,0,0,0
5.204,-0.625,0,0,0,0,0
5.205,-0.625,0,0,0,0,0
5.206,-1.25,0,0,0,0,0
5.207,-1.25,0,0,0,0,0
5.208,-1.875,0,0,0,0,0
5.209,-1.875,0,0,0,0,0
5.21,-1.875,0,0,0,0,0
5.211,-1.875,0,0,0,0,0
5.212,-1.5625,0,0,0,0,0
5.213,-1.25,0,0,0,0,0
5.214,-1.25,0,0,0,0,0
5.215,-1.25,0,0,0,0,0
5.216,-1.5625,0,0,0,0,0
5.217,-1.875,0,0,0,0,0
5.218,-1.25,0,0,0,0,0
5.219,-1.25,0,0,0,0,0
5.22,-1.25,0,0,0,0,0
5.221,-1.875,0,0,1,0,0
5.222,-1.25,0,0,0,0,0
5.223,-1.25,0,0,0,0,0
5.224,-0.3125,0,0,0,0,0
5.225,0,0,0,0,0,0
5.226,0,0,0,0,0,0
5.227,0,0,0,0,0,0
5.228,0,0,0,0,0,0
5.229,0,0,0,0,0,0
5.23,0.3125,0,0,0,0,0
5.231,0,0,0,0,0,0
5.232,0.625,0,0,0,0,0
5.233,0,0,0,0,0,0
5.234,0.625,0,0,0,0,0
5.235,0.625,0,0,0,0,0
5.236,0.9375,0,0,0,0,0
5.237,1.25,0,0,0,0,0
5.238,0.625,0,0,0,0,0
5.239,1.25,0,0,0,0,0
5.24,0.9375,0,0,0,0,0
5.241,0.625,0,0,0,0,0
5.242,0.3125,0,0,0,0,0
5.243,0,0,0,0,0,0
5.244,0.3125,0,0,0,0,0
5.245,0.625,0,0,0,0,0
5.246,0.625,0,0,0,0,0
5.247,0.625,0,0,0,0,0
5.248,0.3125,0,0,0,0,0
5.249,0,0,0,0,0,0
5.25,0.3125,0,0,0,0,0
5.251,0.625,0,0,0,0,0
5.252,0.9375,0,0,0,0,0
5.253,0.625,0,0,0,0,0
5.254,1.25,0,0,0,0,0
5.255,1.25,0,0,0,0,0
5.256,0.9375,0,0,0,0,0
5.257,0.625,0,0,0,0,0
5.258,0,0,0,0,0,0
5.259,0.625,0,0,0,0,0
5.26,0.625,0,0,0,0,0
5.261,0.625,0,0,0,0,0
5.262,0,0,0,0,0,0
5.263,0.625,0,0,0,0,0
5.264,0.3125,0,0,0,0,0
5.265,1.25,0,0,0,0,0
5.266,1.25,0,0,0,0,0
5.267,1.25,0,0,0,0,0
5.268,1.5625,0,0,0,0,0
5.269,1.875,0,0,0,0,0
5.27,1.5625,0,0,0,0,0
5.271,1.25,0,0,0,0,0
5.272,1.25,0,0,0,0,0
5.273,1.25,0,0,0,0,0
5.274,1.25,0,0,0,0,0
5.275,1.25,0,0,0,0,0
5.276,1.25,0,0,0,0,0
5.277,1.25,0,0,0,0,0
5.278,0.9375,0,0,0,0,0
5.279,0.625,0,0,0,0,0
5.28,0.625,0,0,0,0,0
5.281,0.625,0,0,0,0,0
5.282,0.3125,0,0,0,0,0
5.283,0,0,0,0,0,0
5.284,0.3125,0,0,0,0,0
5.285,0.625,0,0,0,0,0
5.286,0.625,0,0,0,0,0
5.287,0.625,0,0,0,0,0
5.288,0.625,0,0,0,0,0
5.289,0.625,0,0,0,0,0
5.29,0.9375,0,0,0,0,0
5.291,0.625,0,0,0,0,0
5.292,0.9375,0,0,0,0,0
5.293,1.25,0,0,0,0,0
5.294,0.9375,0,0,0,0,0
5.295,0.625,0,0,0,0,0
5.296,0.625,0,0,0,0,0
5.297,0.625,0,0,0,0,0
5.298,0.625,0,0,0,0,0
5.299,0.625,0,0,0,0,0
5.3,0,0,0,0,0,0
5.301,0,0,0,0,0,0
5.302,0,0,0,0,0,0
5.303,0,0,0,0,0,0
5.304,-0.3125,0,0,0,0,0
5.305,-0.625,0,0,0,0,0
5.306,-0.625,0,0,0,0,0
5.307,-0.625,0,0,0,0,0
5.308,-0.9375,0,0,0,0,0
5.309,-1.25,0,0,0,0,0
5.31,-1.25,0,0,0,0,0
5.311,-0.625,0,0,0,0,0
5.312,-0.9375,0,0,0,0,0
5.313,-1.25,0,0,0,0,0
5.314,-0.625,0,0,0,0,0
5.315,0,0,0,0,0,0
5.316,-0.625,0,0,0,0,0
5.317,-1.25,0,0,0,0,0
5.318,-0.9375,0,0,0,0,0
5.319,-1.25,0,0,0,0,0
5.32,-2.1875,0,0,0,0,0
5.321,-2.5,0,0,0,0,0
5.322,-2.5,0,0,0,0,0
5.323,-2.5,0,0,0,0,0
5.324,-2.5,0,0,0,0,0
5.325,-2.5,0,0,0,0,0
5.326,-3.125,0,0,0,0,0
5.327,-3.125,0,0,0,0,0
5.328,-2.8125,0,0,0,0,0
5.329,-2.5,0,0,0,0,0
5.33,-2.1875,0,0,0,0,0
5.331,-2.5,0,0,0,0,0
5.332,-2.8125,0,0,0,0,0
5.333,-3.125,0,0,0,0,0
5.334,-3.4375,0,0,0,0,0
5.335,-2.5,0,0,0,0,0
5.336,-3.125,0,0,0,0,0
5.337,-3.125,0,0,0,0,0
5.338,-2.8125,0,0,0,0,0
5.339,-3.125,0,0,0,0,0
5.34,-3.125,0,0,0,0,0
5.341,-3.125,0,0,0,0,0
5.342,-4.0625,0,0,0,0,0
5.343,-4.375,0,0,0,0,0
5.344,-4.0625,0,0,0,0,0
5.345,-4.375,0,0,0,0,0
5.346,-5,0,0,0,0,0
5.347,-5.625,0,0,0,0,0
5.348,-5.3125,0,0,0,0,0
5.349,-5,0,0,0,0,0
5.35,-5.625,0,0,0,0,0
5.351,-5.625,0,0,0,0,0
5.352,-5.625,0,0,0,0,0
5.353,-6.25,0,0,0,0,0
5.354,-6.5625,0,0,0,0,0
5.355,-6.875,0,0,0,0,0
5.356,-7.1875,0,0,0,0,0
5.357,-6.875,0,0,0,0,0
5.358,-6.875,0,0,0,0,0
5.359,-6.875,0,0,0,0,0
5.36,-6.875,0,0,0,0,0
5.361,-6.875,0,0,0,0,0
5.362,-7.5,0,0,0,0,0
5.363,-7.5,0,0,0,0,0
5.364,-8.125,0,0,0,0,0
5.365,-8.75,0,0,0,0,0
5.366,-8.4375,0,0,0,0,0
5.367,-8.125,0,0,0,0,0
5.368,-8.75,0,0,0,0,0
5.369,-8.75,0,0,0,0,0
5.37,-8.75,0,0,0,0,0
5.371,-8.75,0,0,0,0,0
5.372,-8.75,0,0,0,0,0
5.373,-8.75,0,0,0,0,0
5.374,-8.4375,0,0,0,0,0
5.375,-8.125,0,0,0,0,0
5.376,-8.75,0,0,0,0,0
5.377,-8.75,0,0,0,0,0
5.378,-8.75,0,0,0,0,0
5.379,-8.75,0,0,0,0,0
5.38,-8.75,0,0,0,0,0
5.381,-8.75,0,0,0,0,0
5.382,-9.0625,0,0,0,0,0
5.383,-8.75,0,0,0,0,0
5.384,-8.75,0,0,0,0,0
5.385,-8.75,0,0,0,0,0
5.386,-9.0625,0,0,0,0,0
5.387,-9.375,0,0,0,0,0
5.388,-8.75,0,0,0,0,0
5.389,-8.125,0,0,0,0,0
5.39,-8.125,0,0,0,0,0
5.391,-8.125,0,0,0,1,0
5.392,-8.4375,0,0,0,0,0
5.393,-8.125,0,0,0,0,0
5.394,-8.125,0,0,0,0,0
5.395,-8.125,0,0,0,0,0
5.396,-7.5,0,0,0,0,0
5.397,-8.125,0,0,0,0,0
5.398,-7.5,0,0,0,0,0
5.399,-7.5,0,0,0,0,0
5.4,-7.1875,0,0,0,0,0
5.401,-7.5,0,0,0,0,0
5.402,-7.8125,0,0,0,0,0
5.403,-8.125,0,0,0,0,0
5.404,-7.5,0,0,0,0,0
5.405,-7.5,0,0,0,0,0
5.406,-6.5625,0,0,0,0,0
5.407,-6.25,0,0,0,0,0
5.408,-5.9375,0,0,0,0,0
5.409,-6.25,0,0,0,0,0
5.41,-5.9375,0,0,0,0,0
5.411,-5.625,0,0,0,0,0
5.412,-4.6875,0,0,0,0,0
5.413,-4.375,0,0,0,0,0
5.414,-4.0625,0,0,0,0,0
5.415,-4.375,0,0,0,0,0
5.416,-3.75,0,0,0,0,0
5.417,-3.75,0,0,0,0,0
5.418,-3.4375,0,0,0,0,0
5.419,-3.75,0,0,0,0,0
5.42,-2.5,0,0,0,0,0
5.421,-2.5,0,0,0,0,0
5.422,-1.5625,0,0,0,0,0
5.423,-1.25,0,0,0,0,0
5.424,-1.5625,0,0,0,0,0
5.425,-1.25,0,0,0,0,0
5.426,-1.25,0,0,0,0,0
5.427,-1.25,0,0,0,0,0
5.428,-0.625,0,0,0,0,0
5.429,-0.625,0,0,0,0,0
5.43,-0.625,0,0,0,0,0
5.431,0,0,0,0,0,0
5.432,0,0,0,0,0,0
5.433,0.625,0,0,0,0,0
5.434,0.625,0,0,0,0,0
5.435,0.625,0,0,0,0,0
5.436,1.25,0,0,0,0,0
5.437,1.25,0,0,0,0,0
5.438,1.5625,0,0,0,0,0
5.439,2.5,0,0,0,0,0
5.44,2.8125,0,0,0,0,0
5.441,2.5,0,0,0,0,0
5.442,2.5,0,0,0,0,0
5.443,2.5,0,0,0,0,0
5.444,3.4375,0,0,0,0,0
5.445,3.75,0,0,0,0,0
5.446,3.75,0,0,0,0,0
5.447,4.375,0,0,0,0,0
5.448,4.375,0,0,0,0,0
5.449,4.375,0,0,0,0,0
5.45,4.6875,0,0,0,0,0
5.451,5,0,0,0,0,0
5.452,5.625,0,0,0,0,0
5.453,5.625,0,0,0,0,0
5.454,5.3125,0,0,0,0,0
5.455,5.625,0,0,0,0,0
5.456,5,0,0,0,0,0
5.457,5.625,0,0,0,0,0
5.458,5,0,0,0,0,0
5.459,5.625,0,0,0,0,0
5.46,5.625,0,0,0,0,0
5.461,5.625,0,0,0,0,0
5.462,5.9375,0,0,0,0,0
5.463,6.25,0,0,0,0,0
5.464,6.25,0,0,0,0,0
5.465,6.25,0,0,0,0,0
5.466,6.25,0,0,0,0,0
5.467,6.25,0,0,0,0,0
5.468,5.9375,0,0,0,0,0
5.469,5.625,0,0,0,0,0
5.47,5.3125,0,0,0,0,0
5.471,5,0,0,0,0,0
5.472,5.3125,0,0,0,0,0
5.473,5.625,0,0,0,0,0
5.474,5.625,0,0,0,0,0
5.475,5.625,0,0,0,0,0
5.476,5.9375,0,0,0,0,0
5.477,6.25,0,0,0,0,0
5.478,5.3125,0,0,0,0,0
5.479,5,0,0,0,0,0
5.48,5.9375,0,0,0,0,0
5.481,5.625,0,0,0,0,0
5.482,5.625,0,0,0,0,0
5.483,5.625,0,0,0,0,0
5.484,5,0,0,0,0,0
5.485,5,0,0,0,0,0
5.486,4.6875,0,0,0,0,0
5.487,5,0,0,0,0,0
5.488,4.375,0,0,0,0,0
5.489,3.75,0,0,0,0,0
5.49,2.8125,0,0,0,0,0
5.491,2.5,0,0,0,0,0
5.492,2.8125,0,0,0,0,0
5.493,3.125,0,0,0,0,0
5.494,3.125,0,0,0,0,0
5.495,2.5,0,0,0,0,0
5.496,2.1875,0,0,0,0,0
5.497,1.875,0,0,0,0,0
5.498,1.5625,0,0,0,0,0
5.499,1.25,0,0,0,0,0
5.5,2.1875,0,0,0,0,0
5.501,3.125,0,0,0,0,0
5.502,3.4375,0,0,0,0,1
5.503,3.75,0,0,0,0,0
5.504,3.75,0,0,0,0,0
5.505,3.75,0,0,0,0,0
5.506,3.75,0,0,0,0,0
5.507,3.75,0,0,0,0,0
5.508,3.75,0,0,0,0,0
5.509,3.75,0,0,0,0,0
5.51,3.75,0,0,0,0,0
5.511,3.75,0,0,0,0,0
5.512,3.4375,0,0,0,0,0
5.513,3.125,0,0,0,0,0
5.514,3.75,0,0,0,0,0
5.515,3.125,0,0,0,0,0
5.516,3.125,0,0,0,0,0
5.517,3.125,0,0,0,0,0
5.518,3.125,0,0,0,0,0
5.519,3.125,0,0,0,0,0
5.52,3.125,0,0,0,0,0
5.521,3.125,0,0,0,0,0
5.522,3.4375,0,0,0,0,0
5.523,3.75,0,0,0,0,0
5.524,3.75,0,0,0,0,0
5.525,3.75,0,0,0,0,0
5.526,3.75,0,0,0,0,0
5.527,3.75,0,0,0,0,0
5.528,4.0625,0,0,0,0,0
5.529,4.375,0,0,0,0,0
5.53,4.375,0,0,0,0,0
5.531,4.375,0,0,0,0,0
5.532,4.0625,0,0,0,0,0
5.533,3.75,0,0,0,0,0
5.534,3.4375,0,0,0,0,0
