0,10,0,0,0,0,0
0.001,10,0,0,0,0,0
0.002,10,0,0,0,0,0
0.003,10,0,0,0,0,0
0.004,9.6875,0,0,0,0,0
0.005,9.375,0,0,0,0,0
0.006,9.375,0,0,0,0,0
0.007,9.375,0,0,0,0,0
0.008,9.6875,0,0,0,0,0
0.009,10,0,0,0,0,0
0.01,9.375,0,0,0,0,0
0.011,8.75,0,0,0,0,0
0.012,8.75,0,0,0,0,0
0.013,8.75,0,0,0,0,0
0.014,9.0625,0,0,0,0,0
0.015,9.375,0,0,0,0,0
0.016,9.375,0,0,0,0,0
0.017,9.375,0,0,0,0,0
0.018,10,0,0,0,0,0
0.019,10.625,0,0,0,0,0
0.02,10.938,0,0,0,0,0
0.021,11.25,0,0,0,0,0
0.022,11.25,0,0,0,0,0
0.023,11.25,0,0,0,0,0
0.024,11.25,0,0,0,0,0
0.025,11.25,0,0,0,0,0
0.026,10.938,0,0,0,0,0
0.027,10.625,0,0,0,0,0
0.028,10.938,0,0,0,0,0
0.029,11.25,0,0,0,0,0
0.03,10.938,0,0,0,0,0
0.031,10.625,0,0,0,0,0
0.032,10.938,0,0,0,0,0
0.033,11.25,0,0,0,0,0
0.034,10.938,0,0,0,0,0
0.035,10.625,0,0,0,0,0
0.036,10.938,0,0,0,0,0
0.037,11.25,0,0,0,0,0
0.038,11.25,0,0,0,0,0
0.039,11.25,0,0,0,0,0
0.04,11.25,0,0,0,0,0
0.041,11.25,0,0,0,0,0
0.042,11.25,0,0,0,0,0
0.043,11.25,0,0,0,0,0
0.044,11.563,0,0,0,0,0
0.045,11.875,0,0,0,0,0
0.046,11.875,0,0,0,0,0
0.047,11.875,0,0,0,0,0
0.048,11.875,0,0,0,0,0
0.049,11.875,0,0,0,0,0
0.05,11.563,0,0,0,0,0
0.051,11.25,0,0,0,0,0
0.052,11.875,0,0,0,0,0
0.053,12.5,0,0,0,0,0
0.054,12.5,0,0,0,0,0
0.055,12.5,0,0,0,0,0
0.056,12.5,0,0,0,0,0
0.057,12.5,0,0,0,0,0
0.058,12.813,0,0,0,0,0
0.059,13.125,0,0,0,0,0
0.06,13.75,0,0,0,0,0
0.061,14.375,0,0,0,0,0
0.062,14.375,0,0,0,0,0
0.063,14.375,0,0,0,0,0
0.064,14.375,0,0,0,0,0
0.065,14.375,0,0,0,0,0
0.066,14.688,0,0,0,0,0
0.067,15,0,0,0,0,0
0.068,15,0,0,0,0,0
0.069,15,0,0,0,0,0
0.07,15,0,0,0,0,0
0.071,15,0,0,0,0,0
0.072,15.625,0,0,0,0,0
0.073,16.25,0,0,0,0,0
0.074,16.25,0,0,0,0,0
0.075,16.25,0,0,0,0,0
0.076,16.563,0,0,0,0,0
0.077,16.875,0,0,0,0,0
0.078,16.875,0,0,0,0,0
0.079,16.875,0,0,0,0,0
0.08,16.875,0,0,0,0,0
0.081,16.875,0,0,0,0,0
0.082,16.875,0,0,0,0,0
0.083,16.875,0,0,0,0,0
0.084,16.563,0,0,0,0,0
0.085,16.25,0,0,0,0,0
0.086,16.563,0,0,0,0,0
0.087,16.875,0,0,0,0,0
0.088,17.188,0,0,0,0,0
0.089,17.5,0,0,0,0,0
0.09,17.5,0,0,0,0,0
0.091,17.5,0,0,0,0,0
0.092,18.438,0,0,0,0,0
0.093,19.375,0,0,0,0,0
0.094,19.688,0,0,0,0,0
0.095,20,0,0,0,0,0
0.096,19.688,0,0,0,0,0
0.097,19.375,0,0,0,0,0
0.098,19.688,0,0,0,0,0
0.099,20,0,0,0,0,0
0.1,20.625,0,0,0,0,0
0.101,21.25,0,0,0,0,0
0.102,21.563,0,0,0,0,0
0.103,21.875,0,0,0,0,0
0.104,21.875,0,0,0,0,0
0.105,21.875,0,0,0,0,0
0.106,22.5,0,0,0,0,0
0.107,23.125,0,0,0,0,0
0.108,23.125,0,0,0,0,0
0.109,23.125,0,0,0,0,0
0.11,22.813,0,0,0,0,0
0.111,22.5,0,0,0,0,0
0.112,23.438,0,0,0,0,0
0.113,24.375,0,0,0,0,0
0.114,24.375,0,0,0,0,0
0.115,24.375,0,0,0,0,0
0.116,24.063,0,0,0,0,0
0.117,23.75,0,0,0,0,0
0.118,24.063,0,0,0,0,0
0.119,24.375,0,0,0,0,0
0.12,24.688,0,0,0,0,0
0.121,25,0,0,0,0,0
0.122,25,0,0,0,0,0
0.123,25,0,0,0,0,0
0.124,25.313,0,0,0,0,0
0.125,25.625,0,0,0,0,0
0.126,26.25,0,0,0,0,0
0.127,26.875,0,0,0,0,0
0.128,26.875,0,0,0,0,0
0.129,26.875,0,0,0,0,0
0.13,26.563,0,0,0,0,0
0.131,26.25,0,0,0,0,0
0.132,26.875,0,0,0,0,0
0.133,27.5,0,0,0,0,0
0.134,27.813,0,0,0,0,0
0.135,28.125,0,0,0,0,0
0.136,27.813,0,0,0,0,0
0.137,27.5,0,0,0,0,0
0.138,27.813,0,0,0,0,0
0.139,28.125,0,0,0,0,0
0.14,28.125,0,0,0,0,0
0.141,28.125,0,0,0,0,0
0.142,27.813,0,0,0,0,0
0.143,27.5,0,0,0,0,0
0.144,27.813,0,0,0,0,0
0.145,28.125,0,0,0,0,0
0.146,28.438,0,0,0,0,0
0.147,28.75,0,0,0,0,0
0.148,29.063,0,0,0,0,0
0.149,29.375,0,0,0,0,0
0.15,29.375,0,0,0,1,0
0.151,29.375,0,0,0,0,0
0.152,29.375,0,0,0,0,0
0.153,29.375,0,0,0,0,0
0.154,29.375,0,0,0,0,0
0.155,29.375,0,0,0,0,0
0.156,29.375,0,0,0,0,0
0.157,29.375,0,0,0,0,0
0.158,29.063,0,0,0,0,0
0.159,28.75,0,0,0,0,0
0.16,28.75,0,0,0,0,0
0.161,28.75,0,0,0,0,0
0.162,28.75,0,0,0,0,0
0.163,28.75,0,0,0,0,0
0.164,28.438,0,0,0,0,0
0.165,28.125,0,0,0,0,0
0.166,28.125,0,0,0,0,0
0.167,28.125,0,0,0,0,0
0.168,27.188,0,0,0,0,0
0.169,26.25,0,0,0,0,0
0.17,25.938,0,0,0,0,0
0.171,25.625,0,0,0,0,0
0.172,25.938,0,0,0,0,0
0.173,26.25,0,0,0,0,0
0.174,25.938,0,0,0,0,0
0.175,25.625,0,0,0,0,0
0.176,25,0,0,0,0,0
0.177,24.375,0,0,0,0,0
0.178,24.063,0,0,0,0,0
0.179,23.75,0,0,0,0,0
0.18,23.75,0,0,0,0,0
0.181,23.75,0,0,0,0,0
0.182,23.438,0,0,0,0,0
0.183,23.125,0,0,0,0,0
0.184,22.5,0,0,0,0,0
0.185,21.875,0,0,0,0,0
0.186,21.875,0,0,0,0,0
0.187,21.875,0,0,0,0,0
0.188,21.25,0,0,0,0,0
0.189,20.625,0,0,0,0,0
0.19,19.688,0,0,0,0,0
0.191,18.75,0,0,0,0,0
0.192,19.063,0,0,0,0,0
0.193,19.375,0,0,0,0,0
0.194,19.063,0,0,0,0,0
0.195,18.75,0,0,0,0,0
0.196,17.813,0,0,0,0,0
0.197,16.875,0,0,0,0,0
0.198,16.563,0,0,0,0,0
0.199,16.25,0,0,0,0,0
0.2,15.938,0,0,0,0,0
0.201,15.625,0,0,0,0,0
0.202,14.688,0,0,0,0,0
0.203,13.75,0,0,0,0,0
0.204,13.438,0,0,0,0,0
0.205,13.125,0,0,0,0,0
0.206,13.125,0,0,0,0,0
0.207,13.125,0,0,0,0,0
0.208,13.125,0,0,0,0,0
0.209,13.125,0,0,0,0,0
0.21,12.813,0,0,0,0,0
0.211,12.5,0,0,0,0,0
0.212,12.188,0,0,0,0,0
0.213,11.875,0,0,0,0,0
0.214,11.563,0,0,0,0,0
0.215,11.25,0,0,0,0,0
0.216,10.313,0,0,0,0,0
0.217,9.375,0,0,0,0,0
0.218,9.375,0,0,0,0,0
0.219,9.375,0,0,0,0,0
0.22,9.375,0,0,0,0,0
0.221,9.375,0,0,0,0,0
0.222,8.125,0,0,0,0,0
0.223,6.875,0,0,0,0,0
0.224,6.875,0,0,0,0,0
0.225,6.875,0,0,0,0,0
0.226,6.5625,0,0,0,0,0
0.227,6.25,0,0,0,0,0
0.228,6.25,0,0,0,0,0
0.229,6.25,0,0,0,0,0
0.23,6.25,0,0,0,0,0
0.231,6.25,0,0,0,0,0
0.232,5.9375,0,0,0,0,0
0.233,5.625,0,0,0,0,0
0.234,5.625,0,0,0,0,0
0.235,5.625,0,0,0,0,0
0.236,5,0,0,0,0,0
0.237,4.375,0,0,0,0,0
0.238,4.0625,0,0,0,0,0
0.239,3.75,0,0,0,0,0
0.24,4.375,0,0,0,0,0
0.241,5,0,0,0,0,1
0.242,5,0,0,0,0,0
0.243,5,0,0,0,0,0
0.244,5,0,0,0,0,0
0.245,5,0,0,0,0,0
0.246,5.3125,0,0,0,0,0
0.247,5.625,0,0,0,0,0
0.248,4.6875,0,0,0,0,0
0.249,3.75,0,0,0,0,0
0.25,3.4375,0,0,0,0,0
0.251,3.125,0,0,0,0,0
0.252,3.125,0,0,0,0,0
0.253,3.125,0,0,0,0,0
0.254,3.125,0,0,0,0,0
0.255,3.125,0,0,0,0,0
0.256,3.125,0,0,0,0,0
0.257,3.125,0,0,0,0,0
0.258,2.8125,0,0,0,0,0
0.259,2.5,0,0,0,0,0
0.26,2.5,0,0,0,0,0
0.261,2.5,0,0,0,0,0
0.262,2.5,0,0,0,0,0
0.263,2.5,0,0,0,0,0
0.264,2.8125,0,0,0,0,0
0.265,3.125,0,0,0,0,0
0.266,3.4375,0,0,0,0,0
0.267,3.75,0,0,0,0,0
0.268,3.4375,0,0,0,0,0
0.269,3.125,0,0,0,0,0
0.27,3.125,0,0,0,0,0
0.271,3.125,0,0,0,0,0
0.272,2.8125,0,0,0,0,0
0.273,2.5,0,0,0,0,0
0.274,2.5,0,0,0,0,0
0.275,2.5,0,0,0,0,0
0.276,2.1875,0,0,0,0,0
0.277,1.875,0,0,0,0,0
0.278,1.875,0,0,0,0,0
0.279,1.875,0,0,0,0,0
0.28,2.1875,0,0,0,0,0
0.281,2.5,0,0,0,0,0
0.282,2.5,0,0,0,0,0
0.283,2.5,0,0,0,0,0
0.284,2.8125,0,0,0,0,0
0.285,3.125,0,0,0,0,0
0.286,3.125,0,0,0,0,0
0.287,3.125,0,0,0,0,0
0.288,3.125,0,0,0,0,0
0.289,3.125,0,0,0,0,0
0.29,2.5,0,0,0,0,0
0.291,1.875,0,0,0,0,0
0.292,1.875,0,0,0,0,0
0.293,1.875,0,0,0,0,0
0.294,1.875,0,0,0,0,0
0.295,1.875,0,0,0,0,0
0.296,2.1875,0,0,0,0,0
0.297,2.5,0,0,0,0,0
0.298,2.5,0,0,0,0,0
0.299,2.5,0,0,0,0,0
0.3,2.5,0,0,0,0,0
0.301,2.5,0,0,0,0,0
0.302,2.1875,0,0,0,0,0
0.303,1.875,0,0,0,0,0
0.304,1.875,0,0,0,0,0
0.305,1.875,0,0,0,0,0
0.306,1.875,0,0,0,0,0
0.307,1.875,0,0,0,0,0
0.308,2.1875,0,0,0,0,0
0.309,2.5,0,0,0,0,0
0.31,2.5,0,0,0,0,0
0.311,2.5,0,0,0,0,0
0.312,2.8125,0,0,0,0,0
0.313,3.125,0,0,0,0,0
0.314,3.125,0,0,0,0,0
0.315,3.125,0,0,0,0,0
0.316,2.5,0,0,0,0,0
0.317,1.875,0,0,0,0,0
0.318,1.5625,0,0,0,0,0
0.319,1.25,0,0,0,0,0
0.32,1.875,0,0,0,0,0
0.321,2.5,0,0,0,0,0
0.322,2.1875,0,0,0,0,0
0.323,1.875,0,0,0,0,0
0.324,1.875,0,0,0,0,0
0.325,1.875,0,0,0,0,0
0.326,1.5625,0,0,0,0,0
0.327,1.25,0,0,0,0,0
0.328,1.25,0,0,0,0,0
0.329,1.25,0,0,0,0,0
0.33,1.5625,0,0,0,0,0
0.331,1.875,0,0,0,0,0
0.332,2.1875,0,0,0,0,0
0.333,2.5,0,0,0,0,0
0.334,2.1875,0,0,0,0,0
0.335,1.875,0,0,0,0,0
0.336,2.1875,0,0,0,0,0
0.337,2.5,0,0,0,0,0
0.338,2.5,0,0,0,0,0
0.339,2.5,0,0,0,0,0
0.34,2.5,0,0,0,0,0
0.341,2.5,0,0,0,0,0
0.342,2.5,0,0,0,0,0
0.343,2.5,0,0,0,0,0
0.344,2.1875,0,0,0,0,0
0.345,1.875,0,0,0,0,0
0.346,1.5625,0,0,0,0,0
0.347,1.25,0,0,0,0,0
0.348,1.5625,0,0,0,0,0
0.349,1.875,0,0,0,0,0
0.35,1.875,0,0,0,0,0
0.351,1.875,0,0,0,0,0
0.352,2.1875,0,0,0,0,0
0.353,2.5,0,0,0,0,0
0.354,2.5,0,0,0,0,0
0.355,2.5,0,0,0,0,0
0.356,1.875,0,0,0,0,0
0.357,1.25,0,0,0,0,0
0.358,1.25,0,0,0,0,0
0.359,1.25,0,0,0,0,0
0.36,1.875,0,0,0,0,0
0.361,2.5,0,0,0,0,0
0.362,2.1875,0,0,0,0,0
0.363,1.875,0,0,0,0,0
0.364,1.875,0,0,0,0,0
0.365,1.875,0,0,0,0,0
0.366,2.1875,0,0,0,0,0
0.367,2.5,0,0,0,0,0
0.368,2.5,0,0,0,0,0
0.369,2.5,0,0,0,0,0
0.37,2.5,0,0,0,0,0
0.371,2.5,0,0,0,0,0
0.372,2.8125,0,0,0,0,0
0.373,3.125,0,0,0,0,0
0.374,3.125,0,0,0,0,0
0.375,3.125,0,0,0,0,0
0.376,2.5,0,0,0,0,0
0.377,1.875,0,0,0,0,0
0.378,1.875,0,0,0,0,0
0.379,1.875,0,0,0,0,0
0.38,2.1875,0,0,0,0,0
0.381,2.5,0,0,0,0,0
0.382,2.1875,0,0,0,0,0
0.383,1.875,0,0,0,0,0
0.384,1.875,0,0,0,0,0
0.385,1.875,0,0,0,0,0
0.386,1.875,0,0,0,0,0
0.387,1.875,0,0,0,0,0
0.388,2.1875,0,0,0,0,0
0.389,2.5,0,0,0,0,0
0.39,2.1875,0,0,0,0,0
0.391,2.5,0,0,0,0,0
0.392,1.5625,0,0,0,0,0
0.393,1.25,0,0,0,0,0
0.394,1.875,0,0,0,0,0
0.395,1.875,0,0,0,0,0
0.396,1.25,0,0,0,0,0
0.397,1.875,0,0,0,0,0
0.398,1.5625,0,0,0,0,0
0.399,1.25,0,0,0,0,0
0.4,1.875,0,0,0,0,0
0.401,1.875,0,0,0,0,0
0.402,2.1875,0,0,0,0,0
0.403,2.5,0,0,0,0,0
0.404,2.5,0,0,0,0,0
0.405,2.5,0,0,0,0,0
0.406,3.125,0,0,0,0,0
0.407,3.125,0,0,0,0,0
0.408,2.8125,0,0,0,0,0
0.409,3.125,0,0,0,0,0
0.41,3.125,0,0,0,0,0
0.411,3.125,0,0,0,0,0
0.412,2.8125,0,0,0,0,0
0.413,2.5,0,0,0,0,0
0.414,3.125,0,0,0,0,0
0.415,3.125,0,0,0,0,0
0.416,3.125,0,0,0,0,0
0.417,3.125,0,0,0,0,0
0.418,2.5,0,0,0,0,0
0.419,2.5,0,0,0,0,0
0.42,2.8125,0,0,0,0,0
0.421,3.125,0,0,0,0,0
0.422,2.5,0,0,0,0,0
0.423,1.875,0,0,0,0,0
0.424,1.5625,0,0,0,0,0
0.425,1.25,0,0,0,0,0
0.426,1.25,0,0,0,0,0
0.427,1.25,0,0,0,0,0
0.428,1.5625,0,0,0,0,0
0.429,1.875,0,0,0,0,0
0.43,1.875,0,0,0,0,0
0.431,1.875,0,0,0,0,0
0.432,1.5625,0,0,0,0,0
0.433,1.25,0,0,0,0,0
0.434,1.875,0,0,0,0,0
0.435,1.875,0,0,0,0,0
0.436,1.5625,0,0,0,0,0
0.437,1.875,0,0,0,0,0
0.438,1.875,0,0,0,0,0
0.439,1.875,0,0,0,0,0
0.44,2.8125,0,0,0,0,0
0.441,3.125,0,0,0,0,0
0.442,2.1875,0,0,0,0,0
0.443,1.875,0,0,0,0,0
0.444,1.5625,0,0,0,0,0
0.445,1.25,0,0,0,0,0
0.446,2.1875,0,0,0,0,0
0.447,2.5,0,0,0,0,0
0.448,3.125,0,0,0,0,0
0.449,3.125,0,0,0,0,0
0.45,3.125,0,0,0,0,0
0.451,2.5,0,0,0,0,0
0.452,2.1875,0,0,0,0,0
0.453,2.5,0,0,0,0,0
0.454,2.5,0,0,0,0,0
0.455,2.5,0,0,0,0,0
0.456,1.875,0,0,0,0,0
0.457,1.875,0,0,0,0,0
0.458,2.1875,0,0,0,0,0
0.459,1.875,0,0,0,0,0
0.46,2.1875,0,0,0,0,0
0.461,2.5,0,0,0,0,0
0.462,1.875,0,0,0,0,0
0.463,1.875,0,0,0,0,0
0.464,1.875,0,0,0,0,0
0.465,1.875,0,0,0,0,0
0.466,1.875,0,0,0,0,0
0.467,1.875,0,0,0,0,0
0.468,1.5625,0,0,0,0,0
0.469,1.25,0,0,0,0,0
0.47,1.25,0,0,0,0,0
0.471,1.25,0,0,0,0,0
0.472,0.625,0,0,0,0,0
0.473,0.625,0,0,0,0,0
0.474,0.9375,0,0,0,0,0
0.475,1.25,0,0,0,0,0
0.476,0.3125,0,0,0,0,0
0.477,0.625,0,0,0,0,0
0.478,1.5625,0,0,0,0,0
0.479,1.25,0,0,0,0,0
0.48,1.25,0,0,0,0,0
0.481,1.25,0,0,0,0,0
0.482,0.9375,0,0,0,0,0
0.483,0.625,0,0,0,0,0
0.484,-0.3125,0,0,0,0,0
0.485,0,0,0,0,0,0
0.486,0.625,0,0,0,0,0
0.487,1.25,0,0,0,0,0
0.488,1.25,0,0,0,0,0
0.489,1.25,0,0,0,0,0
0.49,0.3125,0,0,0,0,0
0.491,0,0,0,0,0,0
0.492,1.25,0,0,0,0,0
0.493,1.875,0,0,0,0,0
0.494,1.5625,0,0,0,0,0
0.495,1.25,0,0,0,0,0
0.496,1.5625,0,0,0,0,0
0.497,1.25,0,0,0,0,0
0.498,1.25,0,0,0,0,0
0.499,1.25,0,0,0,0,0
0.5,1.5625,0,0,0,0,0
0.501,1.875,0,0,0,0,0
0.502,1.5625,0,0,0,0,0
0.503,1.25,0,0,0,0,0
0.504,0.9375,0,0,0,0,0
0.505,1.25,0,0,0,0,0
0.506,1.5625,0,0,0,0,0
0.507,1.875,0,0,0,0,0
0.508,1.5625,0,0,0,0,0
0.509,1.25,0,0,0,0,0
0.51,0.9375,0,0,0,0,0
0.511,0.625,0,0,0,0,0
0.512,0.625,0,0,0,0,0
0.513,0.625,0,0,0,0,0
0.514,0.9375,0,0,0,0,0
0.515,1.25,0,0,0,0,0
0.516,0,0,0,0,0,0
0.517,0,0,0,0,0,0
0.518,0,0,0,0,0,0
0.519,0,0,0,0,0,0
0.52,0,0,0,0,0,0
0.521,0,0,0,0,0,0
0.522,0.3125,0,0,0,0,0
0.523,0.625,0,0,0,0,0
0.524,-0.3125,0,0,0,0,0
0.525,0,0,0,0,0,0
0.526,0.625,0,0,0,0,0
0.527,0.625,0,0,0,0,0
0.528,0.3125,0,0,0,0,0
0.529,0,0,0,0,0,0
0.53,-0.3125,0,0,0,0,0
0.531,-0.625,0,0,0,0,0
0.532,-0.3125,0,0,0,0,0
0.533,0,0,0,0,0,0
0.534,0.625,0,0,0,0,0
0.535,0.625,0,0,0,0,0
0.536,0,0,0,0,0,0
0.537,0,0,0,0,0,0
0.538,0.625,0,0,0,0,0
0.539,0.625,0,0,0,0,0
0.54,0.9375,0,0,0,0,0
0.541,1.25,0,0,0,0,0
0.542,1.25,0,0,0,0,0
0.543,1.25,0,0,0,0,0
0.544,0.9375,0,0,0,0,0
0.545,0.625,0,0,0,0,0
0.546,1.5625,0,0,0,0,0
0.547,1.875,0,0,0,0,0
0.548,1.5625,0,0,0,0,0
0.549,1.25,0,0,0,0,0
0.55,1.25,0,0,0,0,0
0.551,0,0,0,0,0,0
0.552,0.625,0,0,0,0,0
0.553,0.625,0,0,0,0,0
0.554,-0.3125,0,0,0,0,0
0.555,0,0,0,0,0,0
0.556,-0.3125,0,0,0,0,0
0.557,0,0,0,0,0,0
0.558,-0.3125,0,0,0,0,0
0.559,0,0,0,0,0,0
0.56,-0.625,0,0,0,0,0
0.561,0,0,0,0,0,0
0.562,-0.3125,0,0,0,0,0
0.563,0,0,0,0,0,0
0.564,-0.3125,0,0,0,0,0
0.565,0,0,0,0,0,0
0.566,0.3125,0,0,0,0,0
0.567,0,0,0,0,0,0
0.568,0,0,0,0,0,0
0.569,-0.625,0,0,0,0,0
0.57,0,0,0,0,0,0
0.571,-0.625,0,0,0,0,0
0.572,-0.9375,0,0,0,0,0
0.573,-0.625,0,0,0,0,0
0.574,-0.625,0,0,0,0,0
0.575,0,0,0,0,0,0
0.576,0,0,0,0,0,0
0.577,0,0,0,0,0,0
0.578,0.3125,0,0,0,0,0
0.579,0,0,0,0,0,0
0.58,0.3125,0,0,0,0,0
0.581,0.625,0,0,0,0,0
0.582,-0.3125,0,0,0,0,0
0.583,-0.625,0,0,0,0,0
0.584,-0.625,0,0,0,0,0
0.585,-0.625,0,0,0,0,0
0.586,0,0,0,0,0,0
0.587,0,0,0,0,0,0
0.588,0,0,0,0,0,0
0.589,-0.625,0,0,0,0,0
0.59,-0.3125,0,0,0,0,0
0.591,0,0,0,0,0,0
0.592,0,0,0,0,0,0
0.593,0.625,0,0,0,0,0
0.594,0.9375,0,0,0,0,0
0.595,0.625,0,0,0,0,0
0.596,-0.9375,0,0,0,0,0
0.597,-1.25,0,0,0,0,0
0.598,-1.5625,0,0,0,0,0
0.599,-1.875,0,0,0,0,0
0.6,-1.5625,0,0,0,0,0
0.601,-1.25,0,0,0,0,0
0.602,-1.5625,0,0,0,0,0
0.603,-1.25,0,0,0,0,0
0.604,-0.3125,0,0,0,0,0
0.605,0,0,0,0,0,0
0.606,0.3125,0,0,0,0,0
0.607,0.625,0,0,0,0,0
0.608,0.625,0,0,0,0,0
0.609,0.625,0,0,0,0,0
0.61,-0.3125,0,0,0,0,0
0.611,-0.625,0,0,0,0,0
0.612,-0.3125,0,0,0,0,0
0.613,-0.625,0,0,0,0,0
0.614,-1.25,0,0,0,0,0
0.615,-1.25,0,0,0,0,0
0.616,-1.25,0,0,0,0,0
0.617,-1.25,0,0,0,0,0
0.618,-1.25,0,0,0,0,0
0.619,-1.25,0,0,0,0,0
0.62,-1.25,0,0,0,0,0
0.621,-1.875,0,0,0,0,0
0.622,-1.25,0,0,0,0,0
0.623,-1.875,0,0,0,0,0
0.624,-1.875,0,0,0,0,0
0.625,-1.875,0,0,0,0,0
0.626,-0.9375,0,0,0,0,0
0.627,-1.25,0,0,0,0,0
0.628,-1.25,0,0,0,0,0
0.629,-1.25,0,0,0,0,0
0.63,-1.5625,0,0,0,0,0
0.631,-1.875,0,0,0,0,0
0.632,-1.875,0,0,0,0,0
0.633,-1.875,0,0,0,0,0
0.634,-1.25,0,0,0,0,0
0.635,-1.25,0,0,0,0,0
0.636,-2.1875,0,0,0,0,0
0.637,-1.875,0,0,0,0,0
0.638,-1.5625,0,0,0,0,0
0.639,-1.25,0,0,0,0,0
0.64,-1.5625,0,0,0,0,0
0.641,-1.25,0,0,0,0,0
0.642,-0.3125,0,0,0,0,0
0.643,-0.625,0,0,0,0,0
0.644,-1.5625,0,0,0,0,0
0.645,-1.875,0,0,0,0,0
0.646,-1.875,0,0,0,0,0
0.647,-2.5,0,0,0,0,0
0.648,-2.1875,0,0,0,0,0
0.649,-1.875,0,0,0,0,0
0.65,-1.875,0,0,0,0,0
0.651,-1.875,0,0,0,0,0
0.652,-1.5625,0,0,0,0,0
0.653,-1.875,0,0,0,0,0
0.654,-1.5625,0,0,0,0,0
0.655,-1.25,0,0,0,0,0
0.656,-2.1875,0,0,0,0,0
0.657,-1.875,0,0,0,0,0
0.658,-0.625,0,0,0,0,0
0.659,-0.625,0,0,0,0,0
0.66,-0.9375,0,0,0,0,0
0.661,-0.625,0,0,0,0,0
0.662,-0.9375,0,0,0,0,0
0.663,-1.25,0,0,0,0,0
0.664,-0.9375,0,0,0,0,0
0.665,-1.25,0,0,0,0,0
0.666,-0.3125,0,0,0,0,0
0.667,-0.625,0,0,0,0,0
0.668,-0.3125,0,0,0,0,0
0.669,-0.625,0,0,0,0,0
0.67,-1.5625,0,0,0,0,0
0.671,-1.25,0,0,0,0,0
0.672,-1.5625,0,0,0,0,0
0.673,-1.875,0,0,0,0,0
0.674,-1.5625,0,0,0,0,0
0.675,-1.25,0,0,0,0,0
0.676,-2.1875,0,0,0,0,0
0.677,-1.875,0,0,0,0,0
0.678,-1.5625,0,0,0,0,0
0.679,-1.25,0,0,0,0,0
0.68,-0.9375,0,0,0,0,0
0.681,-1.25,0,0,0,0,0
0.682,-1.25,0,0,0,0,0
0.683,-1.25,0,0,0,0,0
0.684,-1.5625,0,0,0,0,0
0.685,-1.875,0,0,0,0,0
0.686,-1.5625,0,0,0,0,0
0.687,-1.875,0,0,0,0,0
0.688,-2.1875,0,0,0,0,0
0.689,-2.5,0,0,0,0,0
0.69,-2.5,0,0,0,0,0
0.691,-2.5,0,0,0,0,0
0.692,-1.875,0,0,0,0,0
0.693,-1.25,0,0,0,0,0
0.694,-1.25,0,0,0,0,0
0.695,-1.25,0,0,0,0,0
0.696,-1.25,0,0,0,0,0
0.697,-1.875,0,0,0,0,0
0.698,-2.1875,0,0,0,0,0
0.699,-2.5,0,0,0,0,0
0.7,-1.875,0,0,0,0,0
0.701,-1.875,0,0,0,0,0
0.702,-2.1875,0,0,0,0,0
0.703,-1.875,0,0,0,0,0
0.704,-2.1875,0,0,0,0,0
0.705,-2.5,0,0,0,0,0
0.706,-2.8125,0,0,0,0,0
0.707,-2.5,0,0,0,0,0
0.708,-2.1875,0,0,0,0,0
0.709,-1.875,0,0,0,0,0
0.71,-1.5625,0,0,0,0,0
0.711,-1.875,0,0,0,0,0
0.712,-2.5,0,0,0,0,0
0.713,-3.125,0,0,0,0,0
0.714,-2.5,0,0,0,0,0
0.715,-2.5,0,0,0,0,0
0.716,-3.125,0,0,0,0,0
0.717,-3.125,0,0,0,0,0
0.718,-2.1875,0,0,0,0,0
0.719,-2.5,0,0,0,0,0
0.72,-2.5,0,0,0,0,0
0.721,-2.5,0,0,0,0,0
0.722,-3.4375,0,0,0,0,0
0.723,-3.75,0,0,0,0,0
0.724,-4.0625,0,0,0,0,0
0.725,-4.375,0,0,0,0,0
0.726,-4.6875,0,0,0,0,0
0.727,-5,0,0,0,0,0
0.728,-4.375,0,0,0,0,0
0.729,-3.75,0,0,0,0,0
0.73,-5,0,0,0,0,0
0.731,-5.625,0,0,0,0,0
0.732,-5.625,0,0,0,0,0
0.733,-5.625,0,0,0,0,0
0.734,-4.6875,0,0,0,0,0
0.735,-5,0,0,0,0,0
0.736,-5.3125,0,0,0,0,0
0.737,-5.625,0,0,0,0,0
0.738,-5.9375,0,0,0,0,0
0.739,-6.25,0,0,0,0,0
0.74,-6.25,0,0,0,0,0
0.741,-5.625,0,0,0,0,0
0.742,-5.9375,0,0,0,0,0
0.743,-5.625,0,0,0,0,0
0.744,-5.625,0,0,0,0,0
0.745,-5,0,0,0,0,0
0.746,-5.3125,0,0,0,0,0
0.747,-4.375,0,0,0,0,0
0.748,-4.375,0,0,0,0,0
0.749,-4.375,0,0,0,0,0
0.75,-4.6875,0,0,0,0,0
0.751,-5,0,0,0,0,0
0.752,-4.375,0,0,0,0,0
0.753,-4.375,0,0,0,0,0
0.754,-4.0625,0,0,0,0,0
0.755,-4.375,0,0,0,0,0
0.756,-4.0625,0,0,0,0,0
0.757,-3.75,0,0,0,0,0
0.758,-3.75,0,0,0,0,0
0.759,-3.75,0,0,0,0,0
0.76,-3.75,0,0,0,0,0
0.761,-3.75,0,0,0,0,0
0.762,-4.375,0,0,0,0,0
0.763,-5,0,0,0,0,0
0.764,-6.25,0,0,0,0,0
0.765,-6.25,0,0,0,0,0
0.766,-5.9375,0,0,0,0,0
0.767,-5.625,0,0,0,0,0
0.768,-5.9375,0,0,0,0,0
0.769,-6.25,0,0,0,0,0
0.77,-6.25,0,0,0,0,0
0.771,-6.25,0,0,0,0,0
0.772,-6.25,0,0,0,0,0
0.773,-6.25,0,0,0,0,0
0.774,-5.9375,0,0,0,0,0
0.775,-5.625,0,0,0,0,0
0.776,-6.5625,0,0,0,0,0
0.777,-6.25,0,0,0,0,0
0.778,-6.5625,0,0,0,0,0
0.779,-6.875,0,0,0,0,0
0.78,-5.9375,0,0,0,0,0
0.781,-5.625,0,0,0,0,0
0.782,-5.625,0,0,0,0,0
0.783,-5.625,0,0,0,0,0
0.784,-6.25,0,0,0,0,0
0.785,-6.25,0,0,0,0,0
0.786,-6.25,0,0,0,0,0
0.787,-6.25,0,0,0,0,0
0.788,-6.25,0,0,0,0,0
0.789,-6.875,0,0,0,0,0
0.79,-6.875,0,0,0,0,0
0.791,-6.25,0,0,0,0,0
0.792,-6.25,0,0,0,0,0
0.793,-6.875,0,0,0,0,0
0.794,-5.9375,0,0,0,0,0
0.795,-6.25,0,0,0,0,0
0.796,-6.875,0,0,0,0,0
0.797,-6.875,0,0,0,0,0
0.798,-6.875,0,0,0,0,0
0.799,-6.875,0,0,0,0,0
0.8,-7.1875,0,0,0,0,0
0.801,-6.25,0,0,0,0,0
0.802,-5.9375,0,0,0,0,0
0.803,-6.25,0,0,0,0,0
0.804,-6.5625,0,0,0,0,0
0.805,-6.875,0,0,0,0,0
0.806,-6.5625,0,0,0,0,0
0.807,-6.25,0,0,0,0,0
0.808,-6.5625,0,0,0,0,0
0.809,-6.875,0,0,0,0,0
0.81,-7.1875,0,0,0,0,0
0.811,-7.5,0,0,0,0,0
0.812,-6.875,0,0,0,0,0
0.813,-6.25,0,0,0,0,0
0.814,-5.9375,0,0,0,0,0
0.815,-6.25,0,0,0,0,0
0.816,-5.9375,0,0,0,0,0
0.817,-6.25,0,0,0,0,0
0.818,-6.25,0,0,0,0,0
0.819,-6.25,0,0,0,0,0
0.82,-6.5625,0,0,0,0,0
0.821,-6.875,0,0,0,0,0
0.822,-8.125,0,0,0,0,0
0.823,-8.125,0,0,0,0,0
0.824,-8.4375,0,0,0,0,0
0.825,-8.75,0,0,0,0,0
0.826,-8.4375,0,0,0,0,0
0.827,-8.125,0,0,0,0,0
0.828,-7.8125,0,0,0,0,0
0.829,-7.5,0,0,0,0,0
0.83,-8.125,0,0,0,0,0
0.831,-9.375,0,0,0,0,0
0.832,-9.0625,0,0,0,0,0
0.833,-9.375,0,0,0,0,0
0.834,-8.75,0,0,0,0,0
0.835,-8.75,0,0,0,0,0
0.836,-9.375,0,0,0,0,0
0.837,-9.375,0,0,0,0,0
0.838,-9.6875,0,0,0,0,0
0.839,-10,0,0,0,0,0
0.84,-9.375,0,0,0,0,0
0.841,-8.75,0,0,0,0,0
0.842,-8.4375,0,0,0,0,0
0.843,-8.125,0,0,0,0,0
0.844,-9.0625,0,0,0,0,0
0.845,-10.625,0,0,0,0,0
0.846,-9.6875,0,0,0,0,0
0.847,-10,0,0,0,0,0
0.848,-10,0,0,0,0,0
0.849,-10,0,0,0,0,0
0.85,-10.313,1,0,0,0,0
0.851,-10.625,0,0,0,0,0
0.852,-10.625,0,0,0,0,0
0.853,-10.625,0,0,0,0,0
0.854,-10,0,0,0,0,0
0.855,-10,0,0,0,0,0
0.856,-11.563,0,0,0,0,0
0.857,-13.125,0,0,0,0,0
0.858,-13.125,0,0,0,0,0
0.859,-13.125,0,0,0,0,0
0.86,-13.438,0,0,0,0,0
0.861,-13.75,0,0,0,0,0
0.862,-15,0,0,0,0,0
0.863,-16.25,0,0,0,0,0
0.864,-17.813,0,0,0,0,0
0.865,-18.75,0,0,0,0,0
0.866,-19.375,0,0,0,0,0
0.867,-20.625,0,0,0,0,0
0.868,-21.875,0,0,0,0,0
0.869,-23.75,0,0,0,0,0
0.87,-25.313,0,0,0,0,0
0.871,-26.25,0,0,0,0,0
0.872,-26.875,0,0,0,0,0
0.873,-26.875,0,0,0,0,0
0.874,-27.5,0,0,0,0,0
0.875,-28.125,0,0,0,0,0
0.876,-29.688,0,0,0,0,0
0.877,-30.625,0,0,0,0,0
0.878,-31.25,0,0,0,0,0
0.879,-31.875,0,0,0,0,0
0.88,-30.625,0,0,0,0,0
0.881,-30.625,0,0,0,0,0
0.882,-30.938,0,0,0,0,0
0.883,-31.25,0,0,0,0,0
0.884,-31.563,0,0,0,0,0
0.885,-31.875,0,0,0,0,0
0.886,-32.813,0,0,0,0,0
0.887,-33.125,0,0,0,0,0
0.888,-34.688,0,0,0,0,0
0.889,-36.25,0,0,0,0,0
0.89,-37.813,0,0,0,0,0
0.891,-38.75,0,0,0,0,0
0.892,-39.063,0,0,0,0,0
0.893,-39.375,0,0,0,0,0
0.894,-40,0,0,0,0,0
0.895,-40.625,0,0,0,0,0
0.896,-40.625,0,0,0,0,0
0.897,-40.625,0,0,0,0,0
0.898,-39.688,0,0,0,0,0
0.899,-38.75,0,0,0,0,0
0.9,-39.375,0,0,0,0,0
0.901,-39.375,0,0,0,0,0
0.902,-40,0,0,0,0,0
0.903,-41.25,0,0,0,0,0
0.904,-42.188,0,0,0,0,0
0.905,-43.75,0,0,0,0,0
0.906,-44.375,0,1,0,0,0
0.907,-44.375,0,0,0,0,0
0.908,-44.688,0,0,0,0,0
0.909,-44.375,0,0,0,0,0
0.91,-43.438,0,0,0,0,0
0.911,-42.5,0,0,0,0,0
0.912,-40.938,0,0,0,0,0
0.913,-39.375,0,0,0,0,0
0.914,-37.813,0,0,0,0,0
0.915,-37.5,0,0,0,0,0
0.916,-36.875,0,0,0,0,0
0.917,-36.25,0,0,0,0,0
0.918,-35,0,0,0,0,0
0.919,-33.75,0,0,0,0,0
0.92,-31.25,0,0,0,0,0
0.921,-28.125,0,0,0,0,0
0.922,-26.563,0,0,0,0,0
0.923,-24.375,0,0,0,0,0
0.924,-22.813,0,0,0,0,0
0.925,-21.25,0,0,0,0,0
0.926,-18.438,0,0,0,0,0
0.927,-16.875,0,0,0,0,0
0.928,-15.625,0,0,0,0,0
0.929,-14.375,0,0,0,0,0
0.93,-13.438,0,0,0,0,0
0.931,-11.875,0,0,0,0,0
0.932,-10.313,0,0,0,0,0
0.933,-9.375,0,0,0,0,0
0.934,-8.4375,0,0,0,0,0
0.935,-7.5,0,0,0,0,0
0.936,-7.8125,0,0,0,0,0
0.937,-8.125,0,0,0,0,0
0.938,-7.1875,0,0,0,0,0
0.939,-6.25,0,0,0,0,0
0.94,-5.625,0,0,0,0,0
0.941,-5,0,0,0,0,0
0.942,-4.6875,0,0,0,0,0
0.943,-4.375,0,0,0,0,0
0.944,-5,0,0,0,0,0
0.945,-4.375,0,0,0,0,0
0.946,-3.75,0,0,0,0,0
0.947,-3.125,0,0,0,0,0
0.948,-3.125,0,0,0,0,0
0.949,-3.125,0,0,0,0,0
0.95,-3.4375,0,0,0,0,0
0.951,-3.75,0,0,1,0,0
0.952,-3.125,0,0,0,0,0
0.953,-3.125,0,0,0,0,0
0.954,-2.1875,0,0,0,0,0
0.955,-1.875,0,0,0,0,0
0.956,-2.8125,0,0,0,0,0
0.957,-3.125,0,0,0,0,0
0.958,-3.4375,0,0,0,0,0
0.959,-3.125,0,0,0,0,0
0.96,-3.125,0,0,0,0,0
0.961,-3.75,0,0,0,0,0
0.962,-3.75,0,0,0,0,0
0.963,-3.75,0,0,0,0,0
0.964,-3.75,0,0,0,0,0
0.965,-3.125,0,0,0,0,0
0.966,-2.5,0,0,0,0,0
0.967,-1.875,0,0,0,0,0
0.968,-1.5625,0,0,0,0,0
0.969,-1.875,0,0,0,0,0
0.97,-2.1875,0,0,0,0,0
0.971,-2.5,0,0,0,0,0
0.972,-2.1875,0,0,0,0,0
0.973,-1.875,0,0,0,0,0
0.974,-1.875,0,0,0,0,0
0.975,-1.25,0,0,0,0,0
0.976,-1.5625,0,0,0,0,0
0.977,-1.25,0,0,0,0,0
0.978,-0.625,0,0,0,0,0
0.979,-0.625,0,0,0,0,0
0.98,-0.625,0,0,0,0,0
0.981,-0.625,0,0,0,0,0
0.982,-1.875,0,0,0,0,0
0.983,-2.5,0,0,0,0,0
0.984,-2.8125,0,0,0,0,0
0.985,-3.125,0,0,0,0,0
0.986,-2.8125,0,0,0,0,0
0.987,-3.125,0,0,0,0,0
0.988,-3.125,0,0,0,0,0
0.989,-3.125,0,0,0,0,0
0.99,-2.5,0,0,0,0,0
0.991,-2.5,0,0,0,0,0
0.992,-2.5,0,0,0,0,0
0.993,-1.875,0,0,0,0,0
0.994,-2.1875,0,0,0,0,0
0.995,-1.875,0,0,0,0,0
0.996,-1.5625,0,0,0,0,0
0.997,-1.25,0,0,0,0,0
0.998,-1.25,0,0,0,0,0
0.999,-0.625,0,0,0,0,0
1,-0.9375,0,0,0,0,0
1.001,-0.625,0,0,0,0,0
1.002,-0.625,0,0,0,0,0
1.003,-0.625,0,0,0,0,0
1.004,-1.25,0,0,0,0,0
1.005,-1.25,0,0,0,0,0
1.006,-0.625,0,0,0,0,0
1.007,-0.625,0,0,0,0,0
1.008,-1.25,0,0,0,0,0
1.009,-1.875,0,0,0,0,0
1.01,-1.875,0,0,0,0,0
1.011,-2.5,0,0,0,0,0
1.012,-1.875,0,0,0,0,0
1.013,-1.875,0,0,0,0,0
1.014,-1.875,0,0,0,0,0
1.015,-1.875,0,0,0,0,0
1.016,-1.875,0,0,0,0,0
1.017,-1.875,0,0,0,0,0
1.018,-2.1875,0,0,0,0,0
1.019,-2.5,0,0,0,0,0
1.02,-2.1875,0,0,0,0,0
1.021,-1.875,0,0,0,0,0
1.022,-1.875,0,0,0,0,0
1.023,-1.875,0,0,0,0,0
1.024,-2.1875,0,0,0,0,0
1.025,-1.875,0,0,0,0,0
1.026,-1.875,0,0,0,0,0
1.027,-1.25,0,0,0,0,0
1.028,-0.9375,0,0,0,0,0
1.029,-1.25,0,0,0,0,0
1.03,-0.9375,0,0,0,0,0
1.031,-1.25,0,0,0,0,0
1.032,-1.5625,0,0,0,0,0
1.033,-1.25,0,0,0,0,0
1.034,-0.9375,0,0,0,0,0
1.035,-1.25,0,0,0,0,0
1.036,-1.5625,0,0,0,0,0
1.037,-1.875,0,0,0,0,0
1.038,-1.5625,0,0,0,0,0
1.039,-1.875,0,0,0,0,0
1.04,-1.875,0,0,0,0,0
1.041,-1.25,0,0,0,0,0
1.042,-1.25,0,0,0,0,0
1.043,-1.25,0,0,0,0,0
1.044,-0.9375,0,0,0,0,0
1.045,-0.625,0,0,0,0,0
1.046,-0.625,0,0,0,0,0
1.047,0,0,0,0,0,0
1.048,0,0,0,0,0,0
1.049,0,0,0,0,0,0
1.05,-0.3125,0,0,0,0,0
1.051,-0.625,0,0,0,0,0
1.052,-1.25,0,0,0,0,0
1.053,-1.25,0,0,0,0,0
1.054,0,0,0,0,0,0
1.055,0,0,0,0,0,0
1.056,0,0,0,0,0,0
1.057,0,0,0,0,0,0
1.058,0.625,0,0,0,0,0
1.059,0.625,0,0,0,0,0
1.06,0.3125,0,0,0,0,0
1.061,0,0,0,0,0,0
1.062,0,0,0,0,0,0
1.063,0,0,0,0,0,0
1.064,-0.3125,0,0,0,0,0
1.065,0,0,0,0,0,0
1.066,0,0,0,0,0,0
1.067,0,0,0,0,0,0
1.068,0,0,0,0,0,0
1.069,0,0,0,0,0,0
1.07,0,0,0,0,0,0
1.071,0,0,0,0,0,0
1.072,0.625,0,0,0,0,0
1.073,1.25,0,0,0,0,0
1.074,1.5625,0,0,0,0,0
1.075,1.25,0,0,0,0,0
1.076,0.625,0,0,0,0,0
1.077,0.625,0,0,0,0,0
1.078,0.625,0,0,0,0,0
1.079,0,0,0,0,0,0
1.08,1.25,0,0,0,0,0
1.081,1.875,0,0,0,0,0
1.082,1.5625,0,0,0,0,0
1.083,1.25,0,0,0,0,0
1.084,0.9375,0,0,0,0,0
1.085,1.25,0,0,0,0,0
1.086,2.1875,0,0,0,0,0
1.087,2.5,0,0,0,0,0
1.088,2.5,0,0,0,0,0
1.089,2.5,0,0,0,0,0
1.09,2.5,0,0,0,0,0
1.091,2.5,0,0,0,0,0
1.092,2.5,0,0,0,0,0
1.093,3.125,0,0,0,0,0
1.094,4.0625,0,0,0,0,0
1.095,4.375,0,0,0,0,0
1.096,4.375,0,0,0,0,0
1.097,4.375,0,0,0,0,0
1.098,3.75,0,0,0,0,0
1.099,3.75,0,0,0,0,0
1.1,5,0,0,0,0,0
1.101,5.625,0,0,0,0,0
1.102,5.625,0,0,0,0,0
1.103,5.625,0,0,0,0,0
1.104,5.9375,0,0,0,0,0
1.105,5.625,0,0,0,0,0
1.106,6.5625,0,0,0,0,0
1.107,6.25,0,0,0,0,0
1.108,6.875,0,0,0,0,0
1.109,6.875,0,0,0,0,0
1.11,6.875,0,0,0,0,0
1.111,6.875,0,0,0,0,0
1.112,7.5,0,0,0,0,0
1.113,7.5,0,0,0,0,0
1.114,8.125,0,0,0,0,0
1.115,8.125,0,0,0,0,0
1.116,8.125,0,0,0,0,0
1.117,8.125,0,0,0,0,0
1.118,8.75,0,0,0,0,0
1.119,8.75,0,0,0,0,0
1.12,8.75,0,0,0,0,0
1.121,9.375,0,0,0,0,0
1.122,9.375,0,0,0,0,0
1.123,10,0,0,0,0,0
1.124,9.6875,0,0,0,0,0
1.125,10,0,0,0,0,0
1.126,10,0,0,0,0,0
1.127,10.625,0,0,0,0,0
1.128,10.625,0,0,0,0,0
1.129,10.625,0,0,0,0,0
1.13,11.25,0,0,0,0,0
1.131,11.25,0,0,0,0,0
1.132,11.25,0,0,0,0,0
1.133,11.875,0,0,0,0,0
1.134,12.188,0,0,0,0,0
1.135,12.5,0,0,0,0,0
1.136,12.188,0,0,0,0,0
1.137,11.875,0,0,0,0,0
1.138,11.563,0,0,0,0,0
1.139,11.875,0,0,0,0,0
1.14,13.125,0,0,0,0,0
1.141,13.75,0,0,0,0,0
1.142,14.375,0,0,0,0,0
1.143,14.375,0,0,0,0,0
1.144,13.75,0,0,0,0,0
1.145,14.375,0,0,0,0,0
1.146,15,0,0,0,0,0
1.147,15.625,0,0,0,0,0
1.148,15.625,0,0,0,0,0
1.149,15.625,0,0,0,0,0
1.15,15.313,0,0,0,0,0
1.151,15.625,0,0,0,0,0
1.152,16.563,0,0,0,0,0
1.153,16.875,0,0,0,0,0
1.154,16.875,0,0,0,0,0
1.155,16.875,0,0,0,0,0
1.156,17.188,0,0,0,0,0
1.157,16.875,0,0,0,0,0
1.158,17.813,0,0,0,0,0
1.159,17.5,0,0,0,0,0
1.16,18.75,0,0,0,0,0
1.161,19.375,0,0,0,0,0
1.162,18.75,0,0,0,0,0
1.163,18.75,0,0,0,0,0
1.164,18.75,0,0,0,0,0
1.165,18.75,0,0,0,0,0
1.166,19.688,0,0,0,0,0
1.167,20,0,0,0,0,0
1.168,20,0,0,0,0,0
1.169,20,0,0,0,0,0
1.17,20.313,0,0,0,0,0
1.171,20,0,0,0,0,0
1.172,20.313,0,0,0,0,0
1.173,21.25,0,0,0,0,0
1.174,21.563,0,0,0,0,0
1.175,21.25,0,0,0,0,0
1.176,21.25,0,0,0,0,0
1.177,21.25,0,0,0,0,0
1.178,21.563,0,0,0,0,0
1.179,21.25,0,0,0,0,0
1.18,21.25,0,0,0,0,0
1.181,21.875,0,0,0,0,0
1.182,22.188,0,0,0,0,0
1.183,22.5,0,0,0,0,0
1.184,21.875,0,0,0,0,0
1.185,21.875,0,0,0,0,0
1.186,22.813,0,0,0,0,0
1.187,22.5,0,0,0,0,0
1.188,22.188,0,0,0,0,0
1.189,21.875,0,0,0,0,0
1.19,22.188,0,0,0,0,0
1.191,21.875,0,0,0,0,0
1.192,22.188,0,0,0,0,0
1.193,22.5,0,0,0,1,0
1.194,22.5,0,0,0,0,0
1.195,21.875,0,0,0,0,0
1.196,22.188,0,0,0,0,0
1.197,21.875,0,0,0,0,0
1.198,21.875,0,0,0,0,0
1.199,21.875,0,0,0,0,0
1.2,22.188,0,0,0,0,0
1.201,22.5,0,0,0,0,0
1.202,23.125,0,0,0,0,0
1.203,22.5,0,0,0,0,0
1.204,22.188,0,0,0,0,0
1.205,21.875,0,0,0,0,0
1.206,22.188,0,0,0,0,0
1.207,22.5,0,0,0,0,0
1.208,21.875,0,0,0,0,0
1.209,21.25,0,0,0,0,0
1.21,20,0,0,0,0,0
1.211,19.375,0,0,0,0,0
1.212,19.375,0,0,0,0,0
1.213,20,0,0,0,0,0
1.214,19.688,0,0,0,0,0
1.215,19.375,0,0,0,0,0
1.216,17.813,0,0,0,0,0
1.217,16.875,0,0,0,0,0
1.218,16.875,0,0,0,0,0
1.219,16.25,0,0,0,0,0
1.22,16.875,0,0,0,0,0
1.221,16.25,0,0,0,0,0
1.222,16.563,0,0,0,0,0
1.223,15.625,0,0,0,0,0
1.224,14.688,0,0,0,0,0
1.225,14.375,0,0,0,0,0
1.226,14.688,0,0,0,0,0
1.227,15,0,0,0,0,0
1.228,14.375,0,0,0,0,0
1.229,13.75,0,0,0,0,0
1.23,12.813,0,0,0,0,0
1.231,11.875,0,0,0,0,0
1.232,12.188,0,0,0,0,0
1.233,11.875,0,0,0,0,0
1.234,12.188,0,0,0,0,0
1.235,11.875,0,0,0,0,0
1.236,10.938,0,0,0,0,0
1.237,10,0,0,0,0,0
1.238,9.375,0,0,0,0,0
1.239,9.375,0,0,0,0,0
1.24,8.75,0,0,0,0,0
1.241,9.375,0,0,0,0,0
1.242,8.75,0,0,0,0,0
1.243,8.125,0,0,0,0,0
1.244,7.5,0,0,0,0,0
1.245,6.25,0,0,0,0,0
1.246,6.5625,0,0,0,0,0
1.247,6.25,0,0,0,0,0
1.248,6.25,0,0,0,0,0
1.249,5.625,0,0,0,0,0
1.25,5.625,0,0,0,0,0
1.251,5,0,0,0,0,0
1.252,5.3125,0,0,0,0,0
1.253,5,0,0,0,0,0
1.254,4.6875,0,0,0,0,0
1.255,5,0,0,0,0,0
1.256,4.375,0,0,0,0,0
1.257,4.375,0,0,0,0,0
1.258,4.0625,0,0,0,0,0
1.259,4.375,0,0,0,0,0
1.26,4.0625,0,0,0,0,0
1.261,4.375,0,0,0,0,0
1.262,3.4375,0,0,0,0,0
1.263,2.5,0,0,0,0,0
1.264,2.5,0,0,0,0,0
1.265,1.875,0,0,0,0,0
1.266,2.5,0,0,0,0,0
1.267,2.5,0,0,0,0,1
1.268,2.1875,0,0,0,0,0
1.269,2.5,0,0,0,0,0
1.27,1.875,0,0,0,0,0
1.271,1.875,0,0,0,0,0
1.272,1.25,0,0,0,0,0
1.273,1.875,0,0,0,0,0
1.274,2.1875,0,0,0,0,0
1.275,1.875,0,0,0,0,0
1.276,0.9375,0,0,0,0,0
1.277,0.625,0,0,0,0,0
1.278,0.9375,0,0,0,0,0
1.279,1.25,0,0,0,0,0
1.28,0.9375,0,0,0,0,0
1.281,0.625,0,0,0,0,0
1.282,0.625,0,0,0,0,0
1.283,1.25,0,0,0,0,0
1.284,0.9375,0,0,0,0,0
1.285,0.625,0,0,0,0,0
1.286,0.625,0,0,0,0,0
1.287,0.625,0,0,0,0,0
1.288,0.9375,0,0,0,0,0
1.289,0.625,0,0,0,0,0
1.29,0.3125,0,0,0,0,0
1.291,0,0,0,0,0,0
1.292,0,0,0,0,0,0
1.293,0,0,0,0,0,0
1.294,0,0,0,0,0,0
1.295,0,0,0,0,0,0
1.296,0,0,0,0,0,0
1.297,0,0,0,0,0,0
1.298,-0.9375,0,0,0,0,0
1.299,-0.625,0,0,0,0,0
1.3,-0.3125,0,0,0,0,0
1.301,-0.625,0,0,0,0,0
1.302,-0.625,0,0,0,0,0
1.303,-0.625,0,0,0,0,0
1.304,-0.625,0,0,0,0,0
1.305,-0.625,0,0,0,0,0
1.306,-0.625,0,0,0,0,0
1.307,-0.625,0,0,0,0,0
1.308,-0.3125,0,0,0,0,0
1.309,0,0,0,0,0,0
1.31,0,0,0,0,0,0
1.311,-0.625,0,0,0,0,0
1.312,-0.9375,0,0,0,0,0
1.313,-1.25,0,0,0,0,0
1.314,-0.3125,0,0,0,0,0
1.315,0,0,0,0,0,0
1.316,-0.3125,0,0,0,0,0
1.317,0,0,0,0,0,0
1.318,-0.625,0,0,0,0,0
1.319,-0.625,0,0,0,0,0
1.32,-0.3125,0,0,0,0,0
1.321,0,0,0,0,0,0
1.322,0,0,0,0,0,0
1.323,0,0,0,0,0,0
1.324,-0.9375,0,0,0,0,0
1.325,-0.625,0,0,0,0,0
1.326,0,0,0,0,0,0
1.327,0.625,0,0,0,0,0
1.328,0.3125,0,0,0,0,0
1.329,0,0,0,0,0,0
1.33,-0.3125,0,0,0,0,0
1.331,-0.625,0,0,0,0,0
1.332,-0.3125,0,0,0,0,0
1.333,0,0,0,0,0,0
1.334,0.9375,0,0,0,0,0
1.335,0.625,0,0,0,0,0
1.336,-0.3125,0,0,0,0,0
1.337,0,0,0,0,0,0
1.338,0,0,0,0,0,0
1.339,0,0,0,0,0,0
1.34,0,0,0,0,0,0
1.341,0,0,0,0,0,0
1.342,0.3125,0,0,0,0,0
1.343,0,0,0,0,0,0
1.344,-0.625,0,0,0,0,0
1.345,-0.625,0,0,0,0,0
1.346,-0.625,0,0,0,0,0
1.347,-0.625,0,0,0,0,0
1.348,-0.3125,0,0,0,0,0
1.349,-0.625,0,0,0,0,0
1.35,-1.25,0,0,0,0,0
1.351,-1.875,0,0,0,0,0
1.352,-0.9375,0,0,0,0,0
1.353,-0.625,0,0,0,0,0
1.354,-0.3125,0,0,0,0,0
1.355,0,0,0,0,0,0
1.356,-0.3125,0,0,0,0,0
1.357,0,0,0,0,0,0
1.358,0,0,0,0,0,0
1.359,0.625,0,0,0,0,0
1.36,0,0,0,0,0,0
1.361,0,0,0,0,0,0
1.362,-0.3125,0,0,0,0,0
1.363,0,0,0,0,0,0
1.364,-0.625,0,0,0,0,0
1.365,-0.625,0,0,0,0,0
1.366,-0.625,0,0,0,0,0
1.367,-0.625,0,0,0,0,0
1.368,-0.9375,0,0,0,0,0
1.369,-1.25,0,0,0,0,0
1.37,-1.5625,0,0,0,0,0
1.371,-1.25,0,0,0,0,0
1.372,-1.25,0,0,0,0,0
1.373,-1.875,0,0,0,0,0
1.374,-0.625,0,0,0,0,0
1.375,-0.625,0,0,0,0,0
1.376,-0.9375,0,0,0,0,0
1.377,-1.25,0,0,0,0,0
1.378,-0.9375,0,0,0,0,0
1.379,-1.25,0,0,0,0,0
1.38,-0.3125,0,0,0,0,0
1.381,0,0,0,0,0,0
1.382,-0.3125,0,0,0,0,0
1.383,-0.625,0,0,0,0,0
1.384,-0.625,0,0,0,0,0
1.385,-0.625,0,0,0,0,0
1.386,-0.9375,0,0,0,0,0
1.387,-1.25,0,0,0,0,0
1.388,-0.9375,0,0,0,0,0
1.389,-1.25,0,0,0,0,0
1.39,-1.5625,0,0,0,0,0
1.391,-1.25,0,0,0,0,0
1.392,-1.5625,0,0,0,0,0
1.393,-1.25,0,0,0,0,0
1.394,-0.3125,0,0,0,0,0
1.395,0,0,0,0,0,0
1.396,0,0,0,0,0,0
1.397,-0.625,0,0,0,0,0
1.398,0,0,0,0,0,0
1.399,0,0,0,0,0,0
1.4,0,0,0,0,0,0
1.401,0,0,0,0,0,0
1.402,0,0,0,0,0,0
1.403,0,0,0,0,0,0
1.404,-0.625,0,0,0,0,0
1.405,0,0,0,0,0,0
1.406,-0.625,0,0,0,0,0
1.407,0,0,0,0,0,0
1.408,-0.9375,0,0,0,0,0
1.409,-1.25,0,0,0,0,0
1.41,-0.9375,0,0,0,0,0
1.411,-0.625,0,0,0,0,0
1.412,-0.9375,0,0,0,0,0
1.413,-0.625,0,0,0,0,0
1.414,0,0,0,0,0,0
1.415,0.625,0,0,0,0,0
1.416,0,0,0,0,0,0
1.417,0,0,0,0,0,0
1.418,0,0,0,0,0,0
1.419,-0.625,0,0,0,0,0
1.42,0.3125,0,0,0,0,0
1.421,0.625,0,0,0,0,0
1.422,0.625,0,0,0,0,0
1.423,0.625,0,0,0,0,0
1.424,0.3125,0,0,0,0,0
1.425,0,0,0,0,0,0
1.426,0,0,0,0,0,0
1.427,0,0,0,0,0,0
1.428,-0.3125,0,0,0,0,0
1.429,-0.625,0,0,0,0,0
1.43,-1.25,0,0,0,0,0
1.431,-1.25,0,0,0,0,0
1.432,-0.9375,0,0,0,0,0
1.433,-0.625,0,0,0,0,0
1.434,0,0,0,0,0,0
1.435,0,0,0,0,0,0
1.436,0.3125,0,0,0,0,0
1.437,0.625,0,0,0,0,0
1.438,0.625,0,0,0,0,0
1.439,0.625,0,0,0,0,0
1.44,0.625,0,0,0,0,0
1.441,0.625,0,0,0,0,0
1.442,0.3125,0,0,0,0,0
1.443,0.625,0,0,0,0,0
1.444,0,0,0,0,0,0
1.445,0,0,0,0,0,0
1.446,0.625,0,0,0,0,0
1.447,0.625,0,0,0,0,0
1.448,0.625,0,0,0,0,0
1.449,0.625,0,0,0,0,0
1.45,0.625,0,0,0,0,0
1.451,0.625,0,0,0,0,0
1.452,1.5625,0,0,0,0,0
1.453,1.25,0,0,0,0,0
1.454,1.25,0,0,0,0,0
1.455,1.25,0,0,0,0,0
1.456,0.625,0,0,0,0,0
1.457,0,0,0,0,0,0
1.458,0.3125,0,0,0,0,0
1.459,0.625,0,0,0,0,0
1.46,0.625,0,0,0,0,0
1.461,0.625,0,0,0,0,0
1.462,0.9375,0,0,0,0,0
1.463,1.25,0,0,0,0,0
1.464,0,0,0,0,0,0
1.465,0,0,0,0,0,0
1.466,0.3125,0,0,0,0,0
1.467,0.625,0,0,0,0,0
1.468,0,0,0,0,0,0
1.469,0,0,0,0,0,0
1.47,0,0,0,0,0,0
1.471,0,0,0,0,0,0
1.472,0,0,0,0,0,0
1.473,0,0,0,0,0,0
1.474,0.9375,0,0,0,0,0
1.475,0.625,0,0,0,0,0
1.476,0.3125,0,0,0,0,0
1.477,0,0,0,0,0,0
1.478,-0.3125,0,0,0,0,0
1.479,-0.625,0,0,0,0,0
1.48,0,0,0,0,0,0
1.481,0,0,0,0,0,0
1.482,0,0,0,0,0,0
1.483,0.625,0,0,0,0,0
1.484,-0.3125,0,0,0,0,0
1.485,0,0,0,0,0,0
1.486,-0.3125,0,0,0,0,0
1.487,0,0,0,0,0,0
1.488,-0.625,0,0,0,0,0
1.489,-0.625,0,0,0,0,0
1.49,-0.9375,0,0,0,0,0
1.491,-1.25,0,0,0,0,0
1.492,-0.9375,0,0,0,0,0
1.493,-0.625,0,0,0,0,0
1.494,0,0,0,0,0,0
1.495,0.625,0,0,0,0,0
1.496,0,0,0,0,0,0
1.497,0,0,0,0,0,0
1.498,0,0,0,0,0,0
1.499,0,0,0,0,0,0
1.5,0.625,0,0,0,0,0
1.501,0.625,0,0,0,0,0
1.502,0.625,0,0,0,0,0
1.503,0.625,0,0,0,0,0
1.504,-0.3125,0,0,0,0,0
1.505,-0.625,0,0,0,0,0
1.506,-0.9375,0,0,0,0,0
1.507,-1.25,0,0,0,0,0
1.508,-1.25,0,0,0,0,0
1.509,-1.25,0,0,0,0,0
1.51,-1.25,0,0,0,0,0
1.511,-1.25,0,0,0,0,0
1.512,-0.9375,0,0,0,0,0
1.513,-0.625,0,0,0,0,0
1.514,-0.625,0,0,0,0,0
1.515,-0.625,0,0,0,0,0
1.516,-1.25,0,0,0,0,0
1.517,-1.25,0,0,0,0,0
1.518,-0.9375,0,0,0,0,0
1.519,-0.625,0,0,0,0,0
1.52,-0.9375,0,0,0,0,0
1.521,-1.25,0,0,0,0,0
1.522,-0.9375,0,0,0,0,0
1.523,-0.625,0,0,0,0,0
1.524,-0.9375,0,0,0,0,0
1.525,-1.25,0,0,0,0,0
1.526,-1.25,0,0,0,0,0
1.527,-0.625,0,0,0,0,0
1.528,-1.25,0,0,0,0,0
1.529,-1.25,0,0,0,0,0
1.53,-1.875,0,0,0,0,0
1.531,-1.875,0,0,0,0,0
1.532,-1.5625,0,0,0,0,0
1.533,-1.875,0,0,0,0,0
1.534,-1.25,0,0,0,0,0
1.535,-1.25,0,0,0,0,0
1.536,-0.9375,0,0,0,0,0
1.537,-1.875,0,0,0,0,0
1.538,-1.5625,0,0,0,0,0
1.539,-1.875,0,0,0,0,0
1.54,-1.5625,0,0,0,0,0
1.541,-1.25,0,0,0,0,0
1.542,-1.25,0,0,0,0,0
1.543,-1.25,0,0,0,0,0
1.544,-1.25,0,0,0,0,0
1.545,-1.25,0,0,0,0,0
1.546,-1.5625,0,0,0,0,0
1.547,-0.625,0,0,0,0,0
1.548,-1.5625,0,0,0,0,0
1.549,-1.875,0,0,0,0,0
1.55,-1.875,0,0,0,0,0
1.551,-1.875,0,0,0,0,0
1.552,-1.875,0,0,0,0,0
1.553,-1.875,0,0,0,0,0
1.554,-1.5625,0,0,0,0,0
1.555,-1.25,0,0,0,0,0
1.556,-0.625,0,0,0,0,0
1.557,-0.625,0,0,0,0,0
1.558,-0.3125,0,0,0,0,0
1.559,-0.625,0,0,0,0,0
1.56,-0.625,0,0,0,0,0
1.561,-0.625,0,0,0,0,0
1.562,-0.625,0,0,0,0,0
1.563,-1.25,0,0,0,0,0
1.564,-0.9375,0,0,0,0,0
1.565,-1.875,0,0,0,0,0
1.566,-1.875,0,0,0,0,0
1.567,-1.875,0,0,0,0,0
1.568,-2.1875,0,0,0,0,0
1.569,-1.875,0,0,0,0,0
1.57,-1.25,0,0,0,0,0
1.571,-1.25,0,0,0,0,0
1.572,-1.5625,0,0,0,0,0
1.573,-1.875,0,0,0,0,0
1.574,-1.5625,0,0,0,0,0
1.575,-1.25,0,0,0,0,0
1.576,-1.875,0,0,0,0,0
1.577,-2.5,0,0,0,0,0
1.578,-2.1875,0,0,0,0,0
1.579,-1.875,0,0,0,0,0
1.58,-2.5,0,0,0,0,0
1.581,-1.875,0,0,0,0,0
1.582,-2.5,0,0,0,0,0
1.583,-2.5,0,0,0,0,0
1.584,-2.1875,0,0,0,0,0
1.585,-2.5,0,0,0,0,0
1.586,-1.875,0,0,0,0,0
1.587,-1.25,0,0,0,0,0
1.588,-1.5625,0,0,0,0,0
1.589,-1.25,0,0,0,0,0
1.59,-1.5625,0,0,0,0,0
1.591,-2.5,0,0,0,0,0
1.592,-2.5,0,0,0,0,0
1.593,-2.5,0,0,0,0,0
1.594,-1.875,0,0,0,0,0
1.595,-1.25,0,0,0,0,0
1.596,-1.5625,0,0,0,0,0
1.597,-1.875,0,0,0,0,0
1.598,-1.25,0,0,0,0,0
1.599,-1.25,0,0,0,0,0
1.6,-1.875,0,0,0,0,0
1.601,-1.875,0,0,0,0,0
1.602,-0.9375,0,0,0,0,0
1.603,-0.625,0,0,0,0,0
1.604,-1.25,0,0,0,0,0
1.605,-1.875,0,0,0,0,0
1.606,-1.5625,0,0,0,0,0
1.607,-1.25,0,0,0,0,0
1.608,-1.25,0,0,0,0,0
1.609,-1.25,0,0,0,0,0
1.61,-1.25,0,0,0,0,0
1.611,-1.875,0,0,0,0,0
1.612,-1.875,0,0,0,0,0
1.613,-1.875,0,0,0,0,0
1.614,-1.25,0,0,0,0,0
1.615,-1.875,0,0,0,0,0
1.616,-1.25,0,0,0,0,0
1.617,-1.25,0,0,0,0,0
1.618,-2.1875,0,0,0,0,0
1.619,-1.875,0,0,0,0,0
1.62,-1.875,0,0,0,0,0
1.621,-1.25,0,0,0,0,0
1.622,-1.5625,0,0,0,0,0
1.623,-1.25,0,0,0,0,0
1.624,-2.1875,0,0,0,0,0
1.625,-1.875,0,0,0,0,0
1.626,-1.875,0,0,0,0,0
1.627,-1.25,0,0,0,0,0
1.628,-1.875,0,0,0,0,0
1.629,-1.875,0,0,0,0,0
1.63,-1.25,0,0,0,0,0
1.631,-1.25,0,0,0,0,0
1.632,-1.25,0,0,0,0,0
1.633,-1.875,0,0,0,0,0
1.634,-1.25,0,0,0,0,0
1.635,-1.875,0,0,0,0,0
1.636,-2.1875,0,0,0,0,0
1.637,-1.875,0,0,0,0,0
1.638,-2.5,0,0,0,0,0
1.639,-2.5,0,0,0,0,0
1.64,-2.1875,0,0,0,0,0
1.641,-1.875,0,0,0,0,0
1.642,-0.9375,0,0,0,0,0
1.643,-0.625,0,0,0,0,0
1.644,-0.625,0,0,0,0,0
1.645,-0.625,0,0,0,0,0
1.646,-1.25,0,0,0,0,0
1.647,-1.25,0,0,0,0,0
1.648,-1.5625,0,0,0,0,0
1.649,-1.875,0,0,0,0,0
1.65,-1.25,0,0,0,0,0
1.651,-1.25,0,0,0,0,0
1.652,-0.9375,0,0,0,0,0
1.653,-1.25,0,0,0,0,0
1.654,-0.625,0,0,0,0,0
1.655,0,0,0,0,0,0
1.656,-0.3125,0,0,0,0,0
1.657,0,0,0,0,0,0
1.658,0.625,0,0,0,0,0
1.659,0.625,0,0,0,0,0
1.66,-0.3125,0,0,0,0,0
1.661,0,0,0,0,0,0
1.662,-0.625,0,0,0,0,0
1.663,-1.25,0,0,0,0,0
1.664,-1.5625,0,0,0,0,0
1.665,-1.875,0,0,0,0,0
1.666,-2.5,0,0,0,0,0
1.667,-2.5,0,0,0,0,0
1.668,-1.875,0,0,0,0,0
1.669,-1.875,0,0,0,0,0
1.67,-1.5625,0,0,0,0,0
1.671,-1.25,0,0,0,0,0
1.672,-1.25,0,0,0,0,0
1.673,-1.25,0,0,0,0,0
1.674,-1.5625,0,0,0,0,0
1.675,-1.25,0,0,0,0,0
1.676,-0.625,0,0,0,0,0
1.677,-0.625,0,0,0,0,0
1.678,-0.9375,0,0,0,0,0
1.679,-0.625,0,0,0,0,0
1.68,-0.3125,0,0,0,0,0
1.681,0,0,0,0,0,0
1.682,0,0,0,0,0,0
1.683,0,0,0,0,0,0
1.684,0,0,0,0,0,0
1.685,-0.625,0,0,0,0,0
1.686,0,0,0,0,0,0
1.687,-0.625,0,0,0,0,0
1.688,-0.3125,0,0,0,0,0
1.689,0,0,0,0,0,0
1.69,0,0,0,0,0,0
1.691,-1.25,0,0,0,0,0
1.692,-1.25,0,0,0,0,0
1.693,-1.25,0,0,0,0,0
1.694,-0.9375,0,0,0,0,0
1.695,-0.625,0,0,0,0,0
1.696,-0.9375,0,0,0,0,0
1.697,-1.25,0,0,0,0,0
1.698,-0.9375,0,0,0,0,0
1.699,-1.25,0,0,0,0,0
1.7,-1.25,0,0,0,0,0
1.701,0,0,0,0,0,0
1.702,0.3125,0,0,0,0,0
1.703,0.625,0,0,0,0,0
1.704,-0.3125,0,0,0,0,0
1.705,-0.625,0,0,0,0,0
1.706,0.3125,0,0,0,0,0
1.707,0,0,0,0,0,0
1.708,-0.625,0,0,0,0,0
1.709,-0.625,0,0,0,0,0
1.71,-0.3125,0,0,0,0,0
1.711,-0.625,0,0,0,0,0
1.712,-0.625,0,0,0,0,0
1.713,-0.625,0,0,0,0,0
1.714,-0.9375,0,0,0,0,0
1.715,-1.25,0,0,0,0,0
1.716,-0.9375,0,0,0,0,0
1.717,-1.25,0,0,0,0,0
1.718,-0.9375,0,0,0,0,0
1.719,-0.625,0,0,0,0,0
1.72,-0.9375,0,0,0,0,0
1.721,0,0,0,0,0,0
1.722,0.9375,0,0,0,0,0
1.723,0.625,0,0,0,0,0
1.724,0,0,0,0,0,0
1.725,0,0,0,0,0,0
1.726,-0.3125,0,0,0,0,0
1.727,-0.625,0,0,0,0,0
1.728,-0.3125,0,0,0,0,0
1.729,-0.625,0,0,0,0,0
1.73,0,0,0,0,0,0
1.731,-0.625,0,0,0,0,0
1.732,0.3125,0,0,0,0,0
1.733,0.625,0,0,0,0,0
1.734,0.3125,0,0,0,0,0
1.735,1.25,0,0,0,0,0
1.736,0.9375,0,0,0,0,0
1.737,0.625,0,0,0,0,0
1.738,0.3125,0,0,0,0,0
1.739,0,0,0,0,0,0
1.74,-0.625,0,0,0,0,0
1.741,0,0,0,0,0,0
1.742,0,0,0,0,0,0
1.743,0,0,0,0,0,0
1.744,0,0,0,0,0,0
1.745,-0.625,0,0,0,0,0
1.746,0,0,0,0,0,0
1.747,0.625,0,0,0,0,0
1.748,0.3125,0,0,0,0,0
1.749,0,0,0,0,0,0
1.75,0.3125,0,0,0,0,0
1.751,0,0,0,0,0,0
1.752,0.625,0,0,0,0,0
1.753,1.25,0,0,0,0,0
1.754,1.5625,0,0,0,0,0
1.755,1.875,0,0,0,0,0
1.756,1.5625,0,0,0,0,0
1.757,1.25,0,0,0,0,0
1.758,1.25,0,0,0,0,0
1.759,1.25,0,0,0,0,0
1.76,1.875,0,0,0,0,0
1.761,1.875,0,0,0,0,0
1.762,1.875,0,0,0,0,0
1.763,1.875,0,0,0,0,0
1.764,2.1875,0,0,0,0,0
1.765,1.875,0,0,0,0,0
1.766,1.25,0,0,0,0,0
1.767,1.25,0,0,0,0,0
1.768,1.5625,0,0,0,0,0
1.769,1.875,0,0,0,0,0
1.77,0.9375,0,0,0,0,0
1.771,0.625,0,0,0,0,0
1.772,0.9375,0,0,0,0,0
1.773,1.25,0,0,0,0,0
1.774,1.25,0,0,0,0,0
1.775,0.625,0,0,0,0,0
1.776,0.3125,0,0,0,0,0
1.777,0,0,0,0,0,0
1.778,0.9375,0,0,0,0,0
1.779,1.25,0,0,0,0,0
1.78,0.3125,0,0,0,0,0
1.781,0,0,0,0,0,0
1.782,0.9375,0,0,0,0,0
1.783,0.625,0,0,0,0,0
1.784,0,0,0,0,0,0
1.785,-0.625,0,0,0,0,0
1.786,-0.625,0,0,0,0,0
1.787,0,0,0,0,0,0
1.788,0,0,0,0,0,0
1.789,0,0,0,0,0,0
1.79,0,0,0,0,0,0
1.791,0,0,0,0,0,0
1.792,0.3125,0,0,0,0,0
1.793,0.625,0,0,0,0,0
1.794,-0.3125,0,0,0,0,0
1.795,-0.625,0,0,0,0,0
1.796,-0.625,0,0,0,0,0
1.797,-0.625,0,0,0,0,0
1.798,0.3125,0,0,0,0,0
1.799,0,0,0,0,0,0
1.8,0.3125,0,0,0,0,0
1.801,0.625,0,0,0,0,0
1.802,0.3125,0,0,0,0,0
1.803,0,0,0,0,0,0
1.804,-0.3125,0,0,0,0,0
1.805,0,0,0,0,0,0
1.806,-0.3125,0,0,0,0,0
1.807,0,0,0,0,0,0
1.808,-0.625,0,0,0,0,0
1.809,-0.625,0,0,0,0,0
1.81,-1.25,0,0,0,0,0
1.811,-0.625,0,0,0,0,0
1.812,-0.9375,0,0,0,0,0
1.813,-1.25,0,0,0,0,0
1.814,-0.9375,0,0,0,0,0
1.815,-0.625,0,0,0,0,0
1.816,0,0,0,0,0,0
1.817,0,0,0,0,0,0
1.818,0.3125,0,0,0,0,0
1.819,0,0,0,0,0,0
1.82,0.3125,0,0,0,0,0
1.821,0.625,0,0,0,0,0
1.822,0.3125,0,0,0,0,0
1.823,0,0,0,0,0,0
1.824,-0.3125,0,0,0,0,0
1.825,-0.625,0,0,0,0,0
1.826,-0.3125,0,0,0,0,0
1.827,0,0,0,0,0,0
1.828,-0.9375,0,0,0,0,0
1.829,-0.625,0,0,0,0,0
1.83,-0.9375,0,0,0,0,0
1.831,-1.25,0,0,0,0,0
1.832,-0.625,0,0,0,0,0
1.833,0,0,0,0,0,0
1.834,0.3125,0,0,0,0,0
1.835,0.625,0,0,0,0,0
1.836,0.3125,0,0,0,0,0
1.837,0,0,0,0,0,0
1.838,0,0,0,0,0,0
1.839,0,0,0,0,0,0
1.84,-0.9375,0,0,0,0,0
1.841,-0.625,0,0,0,0,0
1.842,-0.625,0,0,0,0,0
1.843,-0.625,0,0,0,0,0
1.844,-0.625,0,0,0,0,0
1.845,-1.25,0,0,0,0,0
1.846,-1.25,0,0,0,0,0
1.847,-1.25,0,0,0,0,0
1.848,-1.5625,0,0,0,0,0
1.849,-1.25,0,0,0,0,0
1.85,-1.5625,0,0,0,0,0
1.851,-1.875,0,0,0,0,0
1.852,-1.25,0,0,0,0,0
1.853,-1.25,0,0,0,0,0
1.854,-1.25,0,0,0,0,0
1.855,-0.625,0,0,0,0,0
1.856,-0.3125,0,0,0,0,0
1.857,-0.625,0,0,0,0,0
1.858,0.3125,0,0,0,0,0
1.859,0,0,0,0,0,0
1.86,-0.3125,0,0,0,0,0
1.861,0,0,0,0,0,0
1.862,0,0,0,0,0,0
1.863,0,0,0,0,0,0
1.864,-0.9375,0,0,0,0,0
1.865,-0.625,0,0,0,0,0
1.866,-0.3125,0,0,0,0,0
1.867,-0.625,0,0,0,0,0
1.868,-0.625,0,0,0,0,0
1.869,-0.625,0,0,0,0,0
1.87,-0.9375,0,0,0,0,0
1.871,-1.25,0,0,0,0,0
1.872,-1.5625,0,0,0,0,0
1.873,-1.875,0,0,0,0,0
1.874,-1.25,0,0,0,0,0
1.875,-0.625,0,0,0,0,0
1.876,-0.625,0,0,0,0,0
1.877,-0.625,0,0,0,0,0
1.878,-0.625,0,0,0,0,0
1.879,-1.25,0,0,0,0,0
1.88,-0.625,0,0,0,0,0
1.881,-0.625,0,0,0,0,0
1.882,-0.9375,0,0,0,0,0
1.883,-1.25,0,0,0,0,0
1.884,-1.25,0,0,0,0,0
1.885,-1.25,0,0,0,0,0
1.886,-2.1875,0,0,0,0,0
1.887,-1.875,0,0,0,0,0
1.888,-1.875,0,0,0,0,0
1.889,-1.875,0,0,0,0,0
1.89,-1.5625,0,0,0,0,0
1.891,-1.25,0,0,0,0,0
1.892,-1.5625,0,0,0,0,0
1.893,-1.875,0,0,0,0,0
1.894,-1.5625,0,0,0,0,0
1.895,-1.875,0,0,0,0,0
1.896,-1.5625,0,0,0,0,0
1.897,-1.875,0,0,0,0,0
1.898,-1.5625,0,0,0,0,0
1.899,-1.875,0,0,0,0,0
1.9,-2.5,0,0,0,0,0
1.901,-2.5,0,0,0,0,0
1.902,-2.8125,0,0,0,0,0
1.903,-3.125,0,0,0,0,0
1.904,-3.75,0,0,0,0,0
1.905,-4.375,0,0,0,0,0
1.906,-4.0625,0,0,0,0,0
1.907,-3.75,0,0,0,0,0
1.908,-3.75,0,0,0,0,0
1.909,-4.375,0,0,0,0,0
1.91,-4.0625,0,0,0,0,0
1.911,-5,0,0,0,0,0
1.912,-5.3125,0,0,0,0,0
1.913,-5.625,0,0,0,0,0
1.914,-5.625,0,0,0,0,0
1.915,-5.625,0,0,0,0,0
1.916,-5.9375,1,0,0,0,0
1.917,-6.25,0,0,0,0,0
1.918,-5.9375,0,0,0,0,0
1.919,-6.25,0,0,0,0,0
1.92,-5.625,0,0,0,0,0
1.921,-5,0,0,0,0,0
1.922,-5,0,0,0,0,0
1.923,-5,0,0,0,0,0
1.924,-6.25,0,0,0,0,0
1.925,-7.5,0,0,0,0,0
1.926,-7.8125,0,0,0,0,0
1.927,-8.125,0,0,0,0,0
1.928,-10.625,0,0,0,0,0
1.929,-12.5,0,0,0,0,0
1.93,-14.375,0,0,0,0,0
1.931,-16.875,0,0,0,0,0
1.932,-16.875,0,0,0,0,0
1.933,-17.5,0,0,0,0,0
1.934,-18.438,0,0,0,0,0
1.935,-18.75,0,0,0,0,0
1.936,-20.625,0,0,0,0,0
1.937,-21.875,0,0,0,0,0
1.938,-21.875,0,0,0,0,0
1.939,-21.875,0,0,0,0,0
1.94,-22.188,0,0,0,0,0
1.941,-21.875,0,0,0,0,0
1.942,-21.875,0,0,0,0,0
1.943,-21.875,0,0,0,0,0
1.944,-21.25,0,0,0,0,0
1.945,-21.875,0,0,0,0,0
1.946,-21.25,0,0,0,0,0
1.947,-20.625,0,0,0,0,0
1.948,-20,0,0,0,0,0
1.949,-19.375,0,0,0,0,0
1.95,-20.313,0,0,0,0,0
1.951,-20.625,0,0,0,0,0
1.952,-22.188,0,0,0,0,0
1.953,-23.75,0,0,0,0,0
1.954,-24.375,0,0,0,0,0
1.955,-24.375,0,0,0,0,0
1.956,-25.313,0,0,0,0,0
1.957,-26.25,0,0,0,0,0
1.958,-26.25,0,0,0,0,0
1.959,-26.25,0,0,0,0,0
1.96,-25.313,0,0,0,0,0
1.961,-24.375,0,0,0,0,0
1.962,-24.375,0,0,0,0,0
1.963,-24.375,0,0,0,0,0
1.964,-25.625,0,0,0,0,0
1.965,-26.25,0,0,0,0,0
1.966,-26.563,0,0,0,0,0
1.967,-27.5,0,0,0,0,0
1.968,-29.688,0,0,0,0,0
1.969,-32.5,0,0,0,0,0
1.97,-34.063,0,0,0,0,0
1.971,-35,0,0,0,0,0
1.972,-35.625,0,0,0,0,0
1.973,-35.625,0,0,0,0,0
1.974,-35.313,0,1,0,0,0
1.975,-35,0,0,0,0,0
1.976,-34.688,0,0,0,0,0
1.977,-34.375,0,0,0,0,0
1.978,-32.188,0,0,0,0,0
1.979,-31.25,0,0,0,0,0
1.98,-30.625,0,0,0,0,0
1.981,-30,0,0,0,0,0
1.982,-29.375,0,0,0,0,0
1.983,-28.75,0,0,0,0,0
1.984,-27.188,0,0,0,0,0
1.985,-25,0,0,0,0,0
1.986,-22.5,0,0,0,0,0
1.987,-19.375,0,0,0,0,0
1.988,-17.813,0,0,0,0,0
1.989,-16.25,0,0,0,0,0
1.99,-14.375,0,0,0,0,0
1.991,-13.75,0,0,0,0,0
1.992,-12.188,0,0,0,0,0
1.993,-10.625,0,0,0,0,0
1.994,-9.6875,0,0,0,0,0
1.995,-8.125,0,0,0,0,0
1.996,-7.1875,0,0,0,0,0
1.997,-6.875,0,0,0,0,0
1.998,-5.625,0,0,0,0,0
1.999,-4.375,0,0,0,0,0
2,-3.4375,0,0,0,0,0
2.001,-2.5,0,0,0,0,0
2.002,-2.1875,0,0,0,0,0
2.003,-1.875,0,0,0,0,0
2.004,-1.875,0,0,0,0,0
2.005,-1.875,0,0,0,0,0
2.006,-0.9375,0,0,0,0,0
2.007,0,0,0,0,0,0
2.008,-0.625,0,0,0,0,0
2.009,0,0,0,0,0,0
2.01,0,0,0,0,0,0
2.011,0,0,0,0,0,0
2.012,0.3125,0,0,0,0,0
2.013,0.625,0,0,1,0,0
2.014,0.9375,0,0,0,0,0
2.015,1.25,0,0,0,0,0
2.016,1.5625,0,0,0,0,0
2.017,1.25,0,0,0,0,0
2.018,1.5625,0,0,0,0,0
2.019,1.25,0,0,0,0,0
2.02,1.25,0,0,0,0,0
2.021,1.875,0,0,0,0,0
2.022,1.875,0,0,0,0,0
2.023,2.5,0,0,0,0,0
2.024,2.5,0,0,0,0,0
2.025,1.875,0,0,0,0,0
2.026,2.1875,0,0,0,0,0
2.027,2.5,0,0,0,0,0
2.028,1.875,0,0,0,0,0
2.029,1.875,0,0,0,0,0
2.03,1.5625,0,0,0,0,0
2.031,1.25,0,0,0,0,0
2.032,1.5625,0,0,0,0,0
2.033,1.25,0,0,0,0,0
2.034,1.5625,0,0,0,0,0
2.035,1.875,0,0,0,0,0
2.036,2.1875,0,0,0,0,0
2.037,2.5,0,0,0,0,0
2.038,2.1875,0,0,0,0,0
2.039,2.5,0,0,0,0,0
2.04,1.875,0,0,0,0,0
2.041,1.875,0,0,0,0,0
2.042,1.875,0,0,0,0,0
2.043,1.25,0,0,0,0,0
2.044,1.25,0,0,0,0,0
2.045,1.25,0,0,0,0,0
2.046,1.5625,0,0,0,0,0
2.047,2.5,0,0,0,0,0
2.048,2.1875,0,0,0,0,0
2.049,1.875,0,0,0,0,0
2.05,2.1875,0,0,0,0,0
2.051,1.875,0,0,0,0,0
2.052,2.1875,0,0,0,0,0
2.053,2.5,0,0,0,0,0
2.054,3.4375,0,0,0,0,0
2.055,3.75,0,0,0,0,0
2.056,3.75,0,0,0,0,0
2.057,4.375,0,0,0,0,0
2.058,4.0625,0,0,0,0,0
2.059,4.375,0,0,0,0,0
2.06,4.6875,0,0,0,0,0
2.061,5,0,0,0,0,0
2.062,4.0625,0,0,0,0,0
2.063,3.75,0,0,0,0,0
2.064,3.4375,0,0,0,0,0
2.065,3.75,0,0,0,0,0
2.066,4.0625,0,0,0,0,0
2.067,4.375,0,0,0,0,0
2.068,3.75,0,0,0,0,0
2.069,3.75,0,0,0,0,0
2.07,4.0625,0,0,0,0,0
2.071,3.75,0,0,0,0,0
2.072,4.0625,0,0,0,0,0
2.073,4.375,0,0,0,0,0
2.074,5.3125,0,0,0,0,0
2.075,5.625,0,0,0,0,0
2.076,5.9375,0,0,0,0,0
2.077,5.625,0,0,0,0,0
2.078,5.625,0,0,0,0,0
2.079,5.625,0,0,0,0,0
2.08,5.9375,0,0,0,0,0
2.081,6.25,0,0,0,0,0
2.082,5.625,0,0,0,0,0
2.083,5,0,0,0,0,0
2.084,4.375,0,0,0,0,0
2.085,3.75,0,0,0,0,0
2.086,4.0625,0,0,0,0,0
2.087,4.375,0,0,0,0,0
2.088,4.0625,0,0,0,0,0
2.089,4.375,0,0,0,0,0
2.09,4.0625,0,0,0,0,0
2.091,4.375,0,0,0,0,0
2.092,4.6875,0,0,0,0,0
2.093,4.375,0,0,0,0,0
2.094,5.625,0,0,0,0,0
2.095,6.25,0,0,0,0,0
2.096,5.625,0,0,0,0,0
2.097,5.625,0,0,0,0,0
2.098,6.25,0,0,0,0,0
2.099,6.25,0,0,0,0,0
2.1,5.9375,0,0,0,0,0
2.101,5.625,0,0,0,0,0
2.102,5.9375,0,0,0,0,0
2.103,5.625,0,0,0,0,0
2.104,5.625,0,0,0,0,0
2.105,6.25,0,0,0,0,0
2.106,6.5625,0,0,0,0,0
2.107,6.875,0,0,0,0,0
2.108,6.875,0,0,0,0,0
2.109,6.875,0,0,0,0,0
2.11,6.25,0,0,0,0,0
2.111,6.25,0,0,0,0,0
2.112,6.875,0,0,0,0,0
2.113,7.5,0,0,0,0,0
2.114,7.8125,0,0,0,0,0
2.115,8.125,0,0,0,0,0
2.116,7.8125,0,0,0,0,0
2.117,8.125,0,0,0,0,0
2.118,9.0625,0,0,0,0,0
2.119,8.75,0,0,0,0,0
2.12,8.4375,0,0,0,0,0
2.121,8.125,0,0,0,0,0
2.122,8.4375,0,0,0,0,0
2.123,8.125,0,0,0,0,0
2.124,8.125,0,0,0,0,0
2.125,8.125,0,0,0,0,0
2.126,8.4375,0,0,0,0,0
2.127,8.75,0,0,0,0,0
2.128,8.4375,0,0,0,0,0
2.129,8.75,0,0,0,0,0
2.13,8.75,0,0,0,0,0
2.131,8.75,0,0,0,0,0
2.132,8.4375,0,0,0,0,0
2.133,8.125,0,0,0,0,0
2.134,9.0625,0,0,0,0,0
2.135,10,0,0,0,0,0
2.136,9.6875,0,0,0,0,0
2.137,9.375,0,0,0,0,0
2.138,10,0,0,0,0,0
2.139,10,0,0,0,0,0
2.14,9.6875,0,0,0,0,0
2.141,10,0,0,0,0,0
2.142,10,0,0,0,0,0
2.143,9.375,0,0,0,0,0
2.144,9.6875,0,0,0,0,0
2.145,9.375,0,0,0,0,0
2.146,10,0,0,0,0,0
2.147,10.625,0,0,0,0,0
2.148,10.313,0,0,0,0,0
2.149,10.625,0,0,0,0,0
2.15,11.25,0,0,0,0,0
2.151,11.25,0,0,0,0,0
2.152,11.563,0,0,0,0,0
2.153,11.875,0,0,0,0,0
2.154,11.875,0,0,0,0,0
2.155,11.875,0,0,0,0,0
2.156,10.938,0,0,0,0,0
2.157,10.625,0,0,0,0,0
2.158,11.563,0,0,0,0,0
2.159,11.875,0,0,0,0,0
2.16,12.5,0,0,0,0,0
2.161,13.125,0,0,0,0,0
2.162,12.5,0,0,0,0,0
2.163,12.5,0,0,0,0,0
2.164,12.813,0,0,0,0,0
2.165,12.5,0,0,0,0,0
2.166,13.125,0,0,0,0,0
2.167,13.75,0,0,0,0,0
2.168,14.375,0,0,0,0,0
2.169,14.375,0,0,0,0,0
2.17,14.688,0,0,0,0,0
2.171,13.75,0,0,0,0,0
2.172,15,0,0,0,0,0
2.173,15.625,0,0,0,0,0
2.174,15.938,0,0,0,0,0
2.175,16.25,0,0,0,0,0
2.176,16.563,0,0,0,0,0
2.177,16.25,0,0,0,0,0
2.178,16.875,0,0,0,0,0
2.179,16.875,0,0,0,0,0
2.18,16.563,0,0,0,0,0
2.181,16.25,0,0,0,0,0
2.182,16.563,0,0,0,0,0
2.183,16.25,0,0,0,0,0
2.184,16.25,0,0,0,0,0
2.185,16.875,0,0,0,0,0
2.186,16.875,0,0,0,0,0
2.187,17.5,0,0,0,0,0
2.188,17.813,0,0,0,0,0
2.189,18.75,0,0,0,0,0
2.19,18.438,0,0,0,0,0
2.191,18.75,0,0,0,0,0
2.192,19.375,0,0,0,0,0
2.193,20,0,0,0,0,0
2.194,20.938,0,0,0,0,0
2.195,21.25,0,0,0,0,0
2.196,20.938,0,0,0,0,0
2.197,21.25,0,0,0,0,0
2.198,21.25,0,0,0,0,0
2.199,21.25,0,0,0,0,0
2.2,21.875,0,0,0,0,0
2.201,22.5,0,0,0,0,0
2.202,22.188,0,0,0,0,0
2.203,22.5,0,0,0,0,0
2.204,22.5,0,0,0,0,0
2.205,21.875,0,0,0,0,0
2.206,23.438,0,0,0,0,0
2.207,24.375,0,0,0,0,0
2.208,23.438,0,0,0,0,0
2.209,23.75,0,0,0,0,0
2.21,24.063,0,0,0,0,0
2.211,24.375,0,0,0,0,0
2.212,24.375,0,0,0,0,0
2.213,24.375,0,0,0,0,0
2.214,24.688,0,0,0,0,0
2.215,25.625,0,0,0,0,0
2.216,25.938,0,0,0,0,0
2.217,25.625,0,0,0,0,0
2.218,25.938,0,0,0,0,0
2.219,26.25,0,0,0,0,0
2.22,27.5,0,0,0,0,0
2.221,28.125,0,0,0,0,0
2.222,28.438,0,0,0,0,0
2.223,27.5,0,0,0,0,0
2.224,28.125,0,0,0,0,0
2.225,28.125,0,0,0,0,0
2.226,28.125,0,0,0,0,0
2.227,28.75,0,0,0,0,0
2.228,28.75,0,0,0,0,0
2.229,28.75,0,0,0,0,0
2.23,29.063,0,0,0,0,0
2.231,28.75,0,0,0,0,0
2.232,29.063,0,0,0,0,0
2.233,29.375,0,0,0,0,0
2.234,30.313,0,0,0,0,0
2.235,30.625,0,0,0,0,0
2.236,30.625,0,0,0,0,0
2.237,31.25,0,0,0,0,0
2.238,31.563,0,0,0,0,0
2.239,31.25,0,0,0,0,0
2.24,30.625,0,0,0,0,0
2.241,30,0,0,0,0,0
2.242,30.625,0,0,0,0,0
2.243,30.625,0,0,0,0,0
2.244,30,0,0,0,0,0
2.245,30,0,0,0,0,0
2.246,31.25,0,0,0,0,0
2.247,32.5,0,0,0,0,0
2.248,31.563,0,0,0,1,0
2.249,31.25,0,0,0,0,0
2.25,32.188,0,0,0,0,0
2.251,31.875,0,0,0,0,0
2.252,31.875,0,0,0,0,0
2.253,31.875,0,0,0,0,0
2.254,32.188,0,0,0,0,0
2.255,31.875,0,0,0,0,0
2.256,31.25,0,0,0,0,0
2.257,30.625,0,0,0,0,0
2.258,30.938,0,0,0,0,0
2.259,30.625,0,0,0,0,0
2.26,30.938,0,0,0,0,0
2.261,30.625,0,0,0,0,0
2.262,30.313,0,0,0,0,0
2.263,30,0,0,0,0,0
2.264,29.375,0,0,0,0,0
2.265,28.75,0,0,0,0,0
2.266,29.688,0,0,0,0,0
2.267,29.375,0,0,0,0,0
2.268,29.375,0,0,0,0,0
2.269,29.375,0,0,0,0,0
2.27,28.75,0,0,0,0,0
2.271,28.125,0,0,0,0,0
2.272,27.813,0,0,0,0,0
2.273,27.5,0,0,0,0,0
2.274,27.5,0,0,0,0,0
2.275,28.125,0,0,0,0,0
2.276,27.188,0,0,0,0,0
2.277,26.875,0,0,0,0,0
2.278,26.563,0,0,0,0,0
2.279,26.25,0,0,0,0,0
2.28,25.938,0,0,0,0,0
2.281,26.25,0,0,0,0,0
2.282,25.625,0,0,0,0,0
2.283,24.375,0,0,0,0,0
2.284,23.75,0,0,0,0,0
2.285,21.875,0,0,0,0,0
2.286,22.5,0,0,0,0,0
2.287,21.875,0,0,0,0,0
2.288,21.25,0,0,0,0,0
2.289,21.25,0,0,0,0,0
2.29,20.625,0,0,0,0,0
2.291,20,0,0,0,0,0
2.292,20,0,0,0,0,0
2.293,20,0,0,0,0,0
2.294,20,0,0,0,0,0
2.295,20,0,0,0,0,0
2.296,19.063,0,0,0,0,0
2.297,17.5,0,0,0,0,0
2.298,17.5,0,0,0,0,0
2.299,16.875,0,0,0,0,0
2.3,16.563,0,0,0,0,0
2.301,16.25,0,0,0,0,0
2.302,15.625,0,0,0,0,0
2.303,15.625,0,0,0,0,0
2.304,13.75,0,0,0,0,0
2.305,13.125,0,0,0,0,0
2.306,13.125,0,0,0,0,0
2.307,13.125,0,0,0,0,0
2.308,13.438,0,0,0,0,0
2.309,13.125,0,0,0,0,0
2.31,12.5,0,0,0,0,0
2.311,11.25,0,0,0,0,0
2.312,11.563,0,0,0,0,0
2.313,11.25,0,0,0,0,0
2.314,11.563,0,0,0,0,0
2.315,11.25,0,0,0,0,0
2.316,10.938,0,0,0,0,0
2.317,10,0,0,0,0,0
2.318,9.6875,0,0,0,0,0
2.319,10,0,0,0,0,0
2.32,9.6875,0,0,0,0,0
2.321,10,0,0,0,0,0
2.322,8.75,0,0,0,0,0
2.323,8.125,0,0,0,0,0
2.324,7.1875,0,0,0,0,0
2.325,6.875,0,0,0,0,0
2.326,6.875,0,0,0,0,0
2.327,6.875,0,0,0,0,0
2.328,6.5625,0,0,0,0,1
2.329,5.625,0,0,0,0,0
2.33,6.5625,0,0,0,0,0
2.331,6.875,0,0,0,0,0
2.332,6.5625,0,0,0,0,0
2.333,6.875,0,0,0,0,0
2.334,6.5625,0,0,0,0,0
2.335,6.875,0,0,0,0,0
2.336,5.9375,0,0,0,0,0
2.337,6.25,0,0,0,0,0
2.338,6.5625,0,0,0,0,0
2.339,6.25,0,0,0,0,0
2.34,5.625,0,0,0,0,0
2.341,5.625,0,0,0,0,0
2.342,5.625,0,0,0,0,0
2.343,5.625,0,0,0,0,0
2.344,5.3125,0,0,0,0,0
2.345,5,0,0,0,0,0
2.346,4.6875,0,0,0,0,0
2.347,5,0,0,0,0,0
2.348,4.6875,0,0,0,0,0
2.349,4.375,0,0,0,0,0
2.35,4.6875,0,0,0,0,0
2.351,5,0,0,0,0,0
2.352,5.3125,0,0,0,0,0
2.353,5,0,0,0,0,0
2.354,5,0,0,0,0,0
2.355,5,0,0,0,0,0
2.356,4.375,0,0,0,0,0
2.357,3.75,0,0,0,0,0
2.358,3.75,0,0,0,0,0
2.359,3.75,0,0,0,0,0
2.36,4.0625,0,0,0,0,0
2.361,4.375,0,0,0,0,0
2.362,3.75,0,0,0,0,0
2.363,4.375,0,0,0,0,0
2.364,4.375,0,0,0,0,0
2.365,3.75,0,0,0,0,0
2.366,4.0625,0,0,0,0,0
2.367,4.375,0,0,0,0,0
2.368,4.375,0,0,0,0,0
2.369,4.375,0,0,0,0,0
2.37,4.375,0,0,0,0,0
2.371,4.375,0,0,0,0,0
2.372,4.0625,0,0,0,0,0
2.373,3.75,0,0,0,0,0
2.374,4.0625,0,0,0,0,0
2.375,3.75,0,0,0,0,0
2.376,3.4375,0,0,0,0,0
2.377,3.125,0,0,0,0,0
2.378,4.0625,0,0,0,0,0
2.379,4.375,0,0,0,0,0
2.38,3.75,0,0,0,0,0
2.381,3.75,0,0,0,0,0
2.382,3.125,0,0,0,0,0
2.383,3.125,0,0,0,0,0
2.384,3.4375,0,0,0,0,0
2.385,3.75,0,0,0,0,0
2.386,3.75,0,0,0,0,0
2.387,3.75,0,0,0,0,0
2.388,3.4375,0,0,0,0,0
2.389,4.375,0,0,0,0,0
2.39,4.375,0,0,0,0,0
2.391,4.375,0,0,0,0,0
2.392,4.375,0,0,0,0,0
2.393,4.375,0,0,0,0,0
2.394,4.0625,0,0,0,0,0
2.395,3.75,0,0,0,0,0
2.396,3.75,0,0,0,0,0
2.397,3.75,0,0,0,0,0
2.398,4.6875,0,0,0,0,0
2.399,4.375,0,0,0,0,0
2.4,3.75,0,0,0,0,0
2.401,4.375,0,0,0,0,0
2.402,4.375,0,0,0,0,0
2.403,4.375,0,0,0,0,0
2.404,4.375,0,0,0,0,0
2.405,4.375,0,0,0,0,0
2.406,4.375,0,0,0,0,0
2.407,3.75,0,0,0,0,0
2.408,3.125,0,0,0,0,0
2.409,3.125,0,0,0,0,0
2.41,3.125,0,0,0,0,0
2.411,3.125,0,0,0,0,0
2.412,4.0625,0,0,0,0,0
2.413,4.375,0,0,0,0,0
2.414,4.375,0,0,0,0,0
2.415,4.375,0,0,0,0,0
2.416,4.6875,0,0,0,0,0
2.417,4.375,0,0,0,0,0
2.418,4.375,0,0,0,0,0
2.419,4.375,0,0,0,0,0
2.42,3.75,0,0,0,0,0
2.421,3.75,0,0,0,0,0
2.422,4.0625,0,0,0,0,0
2.423,5,0,0,0,0,0
2.424,4.0625,0,0,0,0,0
2.425,3.75,0,0,0,0,0
2.426,3.4375,0,0,0,0,0
2.427,3.75,0,0,0,0,0
2.428,3.125,0,0,0,0,0
2.429,3.125,0,0,0,0,0
2.43,3.125,0,0,0,0,0
2.431,3.125,0,0,0,0,0
2.432,3.4375,0,0,0,0,0
2.433,3.75,0,0,0,0,0
2.434,3.4375,0,0,0,0,0
2.435,3.75,0,0,0,0,0
2.436,4.375,0,0,0,0,0
2.437,4.375,0,0,0,0,0
2.438,5,0,0,0,0,0
2.439,4.375,0,0,0,0,0
2.44,4.375,0,0,0,0,0
2.441,4.375,0,0,0,0,0
2.442,4.6875,0,0,0,0,0
2.443,4.375,0,0,0,0,0
2.444,4.375,0,0,0,0,0
2.445,3.75,0,0,0,0,0
2.446,4.375,0,0,0,0,0
2.447,5,0,0,0,0,0
2.448,4.6875,0,0,0,0,0
2.449,4.375,0,0,0,0,0
2.45,4.375,0,0,0,0,0
2.451,4.375,0,0,0,0,0
2.452,5,0,0,0,0,0
2.453,5,0,0,0,0,0
2.454,4.6875,0,0,0,0,0
2.455,5,0,0,0,0,0
2.456,4.6875,0,0,0,0,0
2.457,5,0,0,0,0,0
2.458,5.3125,0,0,0,0,0
2.459,5,0,0,0,0,0
2.46,5.3125,0,0,0,0,0
2.461,5,0,0,0,0,0
2.462,5,0,0,0,0,0
2.463,4.375,0,0,0,0,0
2.464,3.75,0,0,0,0,0
2.465,3.125,0,0,0,0,0
2.466,3.4375,0,0,0,0,0
2.467,3.75,0,0,0,0,0
2.468,3.125,0,0,0,0,0
2.469,3.75,0,0,0,0,0
2.47,2.8125,0,0,0,0,0
2.471,3.125,0,0,0,0,0
2.472,2.8125,0,0,0,0,0
2.473,3.125,0,0,0,0,0
2.474,3.4375,0,0,0,0,0
2.475,3.75,0,0,0,0,0
2.476,3.75,0,0,0,0,0
2.477,4.375,0,0,0,0,0
2.478,4.375,0,0,0,0,0
2.479,4.375,0,0,0,0,0
2.48,4.0625,0,0,0,0,0
2.481,4.375,0,0,0,0,0
2.482,4.6875,0,0,0,0,0
2.483,4.375,0,0,0,0,0
2.484,4.375,0,0,0,0,0
2.485,3.75,0,0,0,0,0
2.486,4.0625,0,0,0,0,0
2.487,4.375,0,0,0,0,0
2.488,4.375,0,0,0,0,0
2.489,4.375,0,0,0,0,0
2.49,4.375,0,0,0,0,0
2.491,4.375,0,0,0,0,0
2.492,4.375,0,0,0,0,0
2.493,4.375,0,0,0,0,0
2.494,4.0625,0,0,0,0,0
2.495,4.375,0,0,0,0,0
2.496,4.375,0,0,0,0,0
2.497,4.375,0,0,0,0,0
2.498,5,0,0,0,0,0
2.499,5,0,0,0,0,0
2.5,5,0,0,0,0,0
2.501,5,0,0,0,0,0
2.502,5,0,0,0,0,0
2.503,5,0,0,0,0,0
2.504,5,0,0,0,0,0
2.505,5,0,0,0,0,0
2.506,4.6875,0,0,0,0,0
2.507,5,0,0,0,0,0
2.508,4.6875,0,0,0,0,0
2.509,5,0,0,0,0,0
2.51,5,0,0,0,0,0
2.511,4.375,0,0,0,0,0
2.512,4.375,0,0,0,0,0
2.513,4.375,0,0,0,0,0
2.514,4.6875,0,0,0,0,0
2.515,5,0,0,0,0,0
2.516,5.3125,0,0,0,0,0
2.517,4.375,0,0,0,0,0
2.518,4.375,0,0,0,0,0
2.519,4.375,0,0,0,0,0
2.52,4.375,0,0,0,0,0
2.521,4.375,0,0,0,0,0
2.522,4.375,0,0,0,0,0
2.523,4.375,0,0,0,0,0
2.524,4.0625,0,0,0,0,0
2.525,3.75,0,0,0,0,0
2.526,4.6875,0,0,0,0,0
2.527,5.625,0,0,0,0,0
2.528,4.6875,0,0,0,0,0
2.529,5,0,0,0,0,0
2.53,5,0,0,0,0,0
2.531,5,0,0,0,0,0
2.532,4.6875,0,0,0,0,0
2.533,5,0,0,0,0,0
2.534,5,0,0,0,0,0
2.535,5,0,0,0,0,0
2.536,4.375,0,0,0,0,0
2.537,3.75,0,0,0,0,0
2.538,4.6875,0,0,0,0,0
2.539,4.375,0,0,0,0,0
2.54,4.6875,0,0,0,0,0
2.541,5,0,0,0,0,0
2.542,4.6875,0,0,0,0,0
2.543,4.375,0,0,0,0,0
2.544,5.3125,0,0,0,0,0
2.545,5.625,0,0,0,0,0
2.546,5,0,0,0,0,0
2.547,5,0,0,0,0,0
2.548,4.6875,0,0,0,0,0
2.549,5.625,0,0,0,0,0
2.55,5,0,0,0,0,0
2.551,5,0,0,0,0,0
2.552,4.6875,0,0,0,0,0
2.553,5,0,0,0,0,0
2.554,5.3125,0,0,0,0,0
2.555,5.625,0,0,0,0,0
2.556,5.3125,0,0,0,0,0
2.557,5,0,0,0,0,0
2.558,5,0,0,0,0,0
2.559,5,0,0,0,0,0
2.56,4.375,0,0,0,0,0
2.561,4.375,0,0,0,0,0
2.562,4.375,0,0,0,0,0
2.563,4.375,0,0,0,0,0
2.564,4.6875,0,0,0,0,0
2.565,4.375,0,0,0,0,0
2.566,4.375,0,0,0,0,0
2.567,4.375,0,0,0,0,0
2.568,4.375,0,0,0,0,0
2.569,5,0,0,0,0,0
2.57,5,0,0,0,0,0
2.571,5,0,0,0,0,0
2.572,5,0,0,0,0,0
2.573,5,0,0,0,0,0
2.574,5.3125,0,0,0,0,0
2.575,5.625,0,0,0,0,0
2.576,5.3125,0,0,0,0,0
2.577,5,0,0,0,0,0
2.578,4.6875,0,0,0,0,0
2.579,4.375,0,0,0,0,0
2.58,4.375,0,0,0,0,0
2.581,5,0,0,0,0,0
2.582,5.3125,0,0,0,0,0
2.583,5.625,0,0,0,0,0
2.584,5.3125,0,0,0,0,0
2.585,5,0,0,0,0,0
2.586,5,0,0,0,0,0
2.587,5,0,0,0,0,0
2.588,4.6875,0,0,0,0,0
2.589,4.375,0,0,0,0,0
2.59,4.0625,0,0,0,0,0
2.591,4.375,0,0,0,0,0
2.592,4.0625,0,0,0,0,0
2.593,4.375,0,0,0,0,0
2.594,4.375,0,0,0,0,0
2.595,5,0,0,0,0,0
2.596,5.625,0,0,0,0,0
2.597,5.625,0,0,0,0,0
2.598,5.9375,0,0,0,0,0
2.599,5.625,0,0,0,0,0
2.6,6.25,0,0,0,0,0
2.601,5.625,0,0,0,0,0
2.602,5.9375,0,0,0,0,0
2.603,5.625,0,0,0,0,0
2.604,5.625,0,0,0,0,0
2.605,5.625,0,0,0,0,0
2.606,5.625,0,0,0,0,0
2.607,5.625,0,0,0,0,0
2.608,5.625,0,0,0,0,0
2.609,5.625,0,0,0,0,0
2.61,4.6875,0,0,0,0,0
2.611,5,0,0,0,0,0
2.612,4.375,0,0,0,0,0
2.613,4.375,0,0,0,0,0
2.614,5,0,0,0,0,0
2.615,5.625,0,0,0,0,0
2.616,5.3125,0,0,0,0,0
2.617,5,0,0,0,0,0
2.618,4.6875,0,0,0,0,0
2.619,4.375,0,0,0,0,0
2.62,5,0,0,0,0,0
2.621,5,0,0,0,0,0
2.622,5.3125,0,0,0,0,0
2.623,5,0,0,0,0,0
2.624,5,0,0,0,0,0
2.625,5,0,0,0,0,0
2.626,5.3125,0,0,0,0,0
2.627,5,0,0,0,0,0
2.628,5.9375,0,0,0,0,0
2.629,5.625,0,0,0,0,0
2.63,5.625,0,0,0,0,0
2.631,5.625,0,0,0,0,0
2.632,5,0,0,0,0,0
2.633,5,0,0,0,0,0
2.634,5.9375,0,0,0,0,0
2.635,6.25,0,0,0,0,0
2.636,5.625,0,0,0,0,0
2.637,5,0,0,0,0,0
2.638,4.6875,0,0,0,0,0
2.639,4.375,0,0,0,0,0
2.64,5,0,0,0,0,0
2.641,5.625,0,0,0,0,0
2.642,5.625,0,0,0,0,0
2.643,5.625,0,0,0,0,0
2.644,5,0,0,0,0,0
2.645,5.625,0,0,0,0,0
2.646,5,0,0,0,0,0
2.647,5,0,0,0,0,0
2.648,5.625,0,0,0,0,0
2.649,5.625,0,0,0,0,0
2.65,5.9375,0,0,0,0,0
2.651,6.25,0,0,0,0,0
2.652,6.25,0,0,0,0,0
2.653,6.25,0,0,0,0,0
2.654,6.25,0,0,0,0,0
2.655,6.25,0,0,0,0,0
2.656,5.9375,0,0,0,0,0
2.657,5.625,0,0,0,0,0
2.658,5.3125,0,0,0,0,0
2.659,5,0,0,0,0,0
2.66,6.25,0,0,0,0,0
2.661,6.875,0,0,0,0,0
2.662,6.875,0,0,0,0,0
2.663,6.875,0,0,0,0,0
2.664,6.5625,0,0,0,0,0
2.665,6.25,0,0,0,0,0
2.666,6.875,0,0,0,0,0
2.667,7.5,0,0,0,0,0
2.668,7.5,0,0,0,0,0
2.669,7.5,0,0,0,0,0
2.67,7.8125,0,0,0,0,0
2.671,7.5,0,0,0,0,0
2.672,8.125,0,0,0,0,0
2.673,8.125,0,0,0,0,0
2.674,8.125,0,0,0,0,0
2.675,8.125,0,0,0,0,0
2.676,7.1875,0,0,0,0,0
2.677,6.25,0,0,0,0,0
2.678,5.9375,0,0,0,0,0
2.679,5,0,0,0,0,0
2.68,6.25,0,0,0,0,0
2.681,6.875,0,0,0,0,0
2.682,5.9375,0,0,0,0,0
2.683,5.625,0,0,0,0,0
2.684,5.9375,0,0,0,0,0
2.685,6.25,0,0,0,0,0
2.686,6.25,0,0,0,0,0
2.687,6.25,0,0,0,0,0
2.688,5.9375,0,0,0,0,0
2.689,6.25,0,0,0,0,0
2.69,6.5625,0,0,0,0,0
2.691,6.25,0,0,0,0,0
2.692,5.625,0,0,0,0,0
2.693,5.625,0,0,0,0,0
2.694,6.25,0,0,0,0,0
2.695,6.875,0,0,0,0,0
2.696,7.1875,0,0,0,0,0
2.697,7.5,0,0,0,0,0
2.698,7.1875,0,0,0,0,0
2.699,6.875,0,0,0,0,0
2.7,6.5625,0,0,0,0,0
2.701,6.875,0,0,0,0,0
2.702,7.5,0,0,0,0,0
2.703,7.5,0,0,0,0,0
2.704,6.875,0,0,0,0,0
2.705,7.5,0,0,0,0,0
2.706,6.875,0,0,0,0,0
2.707,7.5,0,0,0,0,0
2.708,7.8125,0,0,0,0,0
2.709,7.5,0,0,0,0,0
2.71,7.5,0,0,0,0,0
2.711,6.25,0,0,0,0,0
2.712,6.25,0,0,0,0,0
2.713,6.25,0,0,0,0,0
2.714,6.5625,0,0,0,0,0
2.715,5.625,0,0,0,0,0
2.716,6.25,0,0,0,0,0
2.717,5.625,0,0,0,0,0
2.718,5.9375,0,0,0,0,0
2.719,5.625,0,0,0,0,0
2.72,5.9375,0,0,0,0,0
2.721,6.875,0,0,0,0,0
2.722,6.875,0,0,0,0,0
2.723,6.875,0,0,0,0,0
2.724,5.9375,0,0,0,0,0
2.725,6.25,0,0,0,0,0
2.726,5.625,0,0,0,0,0
2.727,5.625,0,0,0,0,0
2.728,6.5625,0,0,0,0,0
2.729,6.25,0,0,0,0,0
2.73,6.25,0,0,0,0,0
2.731,6.25,0,0,0,0,0
2.732,5.9375,0,0,0,0,0
2.733,6.25,0,0,0,0,0
2.734,6.25,0,0,0,0,0
2.735,6.25,0,0,0,0,0
2.736,6.25,0,0,0,0,0
2.737,5.625,0,0,0,0,0
2.738,5.625,0,0,0,0,0
2.739,5.625,0,0,0,0,0
2.74,5.9375,0,0,0,0,0
2.741,6.875,0,0,0,0,0
2.742,7.1875,0,0,0,0,0
2.743,7.5,0,0,0,0,0
2.744,6.5625,0,0,0,0,0
2.745,6.25,0,0,0,0,0
2.746,6.5625,0,0,0,0,0
2.747,6.875,0,0,0,0,0
2.748,7.8125,0,0,0,0,0
2.749,8.125,0,0,0,0,0
2.75,7.1875,0,0,0,0,0
2.751,6.25,0,0,0,0,0
2.752,6.5625,0,0,0,0,0
2.753,6.25,0,0,0,0,0
2.754,6.5625,0,0,0,0,0
2.755,6.875,0,0,0,0,0
2.756,7.5,0,0,0,0,0
2.757,7.5,0,0,0,0,0
2.758,7.1875,0,0,0,0,0
2.759,7.5,0,0,0,0,0
2.76,7.1875,0,0,0,0,0
2.761,6.875,0,0,0,0,0
2.762,6.875,0,0,0,0,0
2.763,6.875,0,0,0,0,0
2.764,6.875,0,0,0,0,0
2.765,6.25,0,0,0,0,0
2.766,5.625,0,0,0,0,0
2.767,5.625,0,0,0,0,0
2.768,6.25,0,0,0,0,0
2.769,6.25,0,0,0,0,0
2.77,5.625,0,0,0,0,0
2.771,5,0,0,0,0,0
2.772,5,0,0,0,0,0
2.773,5,0,0,0,0,0
2.774,5.625,0,0,0,0,0
2.775,6.25,0,0,0,0,0
2.776,5.3125,0,0,0,0,0
2.777,5.625,0,0,0,0,0
2.778,5,0,0,0,0,0
2.779,5,0,0,0,0,0
2.78,5.3125,0,0,0,0,0
2.781,6.25,0,0,0,0,0
2.782,5.625,0,0,0,0,0
2.783,5.625,0,0,0,0,0
2.784,5.9375,0,0,0,0,0
2.785,6.25,0,0,0,0,0
2.786,6.5625,0,0,0,0,0
2.787,6.875,0,0,0,0,0
2.788,6.25,0,0,0,0,0
2.789,6.25,0,0,0,0,0
2.79,6.25,0,0,0,0,0
2.791,5.625,0,0,0,0,0
2.792,6.25,0,0,0,0,0
2.793,6.25,0,0,0,0,0
2.794,6.5625,0,0,0,0,0
2.795,6.25,0,0,0,0,0
2.796,5.625,0,0,0,0,0
2.797,5.625,0,0,0,0,0
2.798,5.3125,0,0,0,0,0
2.799,5.625,0,0,0,0,0
2.8,5.9375,0,0,0,0,0
2.801,5.625,0,0,0,0,0
2.802,5.3125,0,0,0,0,0
2.803,5.625,0,0,0,0,0
2.804,5.625,0,0,0,0,0
2.805,5.625,0,0,0,0,0
2.806,5.3125,0,0,0,0,0
2.807,5.625,0,0,0,0,0
2.808,5.625,0,0,0,0,0
2.809,5.625,0,0,0,0,0
2.81,5.9375,0,0,0,0,0
2.811,5.625,0,0,0,0,0
2.812,5.9375,0,0,0,0,0
2.813,6.25,0,0,0,0,0
2.814,5.625,0,0,0,0,0
2.815,5.625,0,0,0,0,0
2.816,6.5625,0,0,0,0,0
2.817,6.25,0,0,0,0,0
2.818,5.625,0,0,0,0,0
2.819,6.25,0,0,0,0,0
2.82,5.9375,0,0,0,0,0
2.821,6.25,0,0,0,0,0
2.822,5.3125,0,0,0,0,0
2.823,5.625,0,0,0,0,0
2.824,5.9375,0,0,0,0,0
2.825,5.625,0,0,0,0,0
2.826,5.9375,0,0,0,0,0
2.827,5.625,0,0,0,0,0
2.828,5.625,0,0,0,0,0
2.829,5.625,0,0,0,0,0
2.83,5.625,0,0,0,0,0
2.831,5,0,0,0,0,0
2.832,5.9375,0,0,0,0,0
2.833,6.25,0,0,0,0,0
2.834,6.5625,0,0,0,0,0
2.835,6.875,0,0,0,0,0
2.836,6.5625,0,0,0,0,0
2.837,6.875,0,0,0,0,0
2.838,6.5625,0,0,0,0,0
2.839,6.25,0,0,0,0,0
2.84,6.25,0,0,0,0,0
2.841,6.875,0,0,0,0,0
2.842,6.5625,0,0,0,0,0
2.843,6.25,0,0,0,0,0
2.844,6.25,0,0,0,0,0
2.845,6.25,0,0,0,0,0
2.846,6.25,0,0,0,0,0
2.847,6.25,0,0,0,0,0
2.848,6.25,0,0,0,0,0
2.849,6.25,0,0,0,0,0
2.85,5.9375,0,0,0,0,0
2.851,5.625,0,0,0,0,0
2.852,5.3125,0,0,0,0,0
2.853,5.625,0,0,0,0,0
2.854,5,0,0,0,0,0
2.855,5,0,0,0,0,0
2.856,5.3125,0,0,0,0,0
2.857,5,0,0,0,0,0
2.858,4.6875,0,0,0,0,0
2.859,4.375,0,0,0,0,0
2.86,5,0,0,0,0,0
2.861,5,0,0,0,0,0
2.862,4.6875,0,0,0,0,0
2.863,4.375,0,0,0,0,0
2.864,4.6875,0,0,0,0,0
2.865,5,0,0,0,0,0
2.866,4.375,0,0,0,0,0
2.867,4.375,0,0,0,0,0
2.868,4.0625,0,0,0,0,0
2.869,4.375,0,0,0,0,0
2.87,4.0625,0,0,0,0,0
2.871,3.125,0,0,0,0,0
2.872,3.125,0,0,0,0,0
2.873,3.75,0,0,0,0,0
2.874,3.125,0,0,0,0,0
2.875,3.125,0,0,0,0,0
2.876,3.4375,0,0,0,0,0
2.877,3.125,0,0,0,0,0
2.878,3.125,0,0,0,0,0
2.879,3.125,0,0,0,0,0
2.88,3.125,0,0,0,0,0
2.881,3.125,0,0,0,0,0
2.882,3.125,0,0,0,0,0
2.883,3.125,0,0,0,0,0
2.884,2.8125,0,0,0,0,0
2.885,1.875,0,0,0,0,0
2.886,2.1875,0,0,0,0,0
2.887,2.5,0,0,0,0,0
2.888,2.5,0,0,0,0,0
2.889,3.125,0,0,0,0,0
2.89,2.8125,0,0,0,0,0
2.891,3.125,0,0,0,0,0
2.892,3.125,0,0,0,0,0
2.893,3.125,0,0,0,0,0
2.894,2.8125,0,0,0,0,0
2.895,2.5,0,0,0,0,0
2.896,2.5,0,0,0,0,0
2.897,1.25,0,0,0,0,0
2.898,1.25,0,0,0,0,0
2.899,1.25,0,0,0,0,0
2.9,1.5625,0,0,0,0,0
2.901,0.625,0,0,0,0,0
2.902,1.25,0,0,0,0,0
2.903,1.25,0,0,0,0,0
2.904,0.9375,0,0,0,0,0
2.905,0.625,0,0,0,0,0
2.906,0.9375,0,0,0,0,0
2.907,1.875,0,0,0,0,0
2.908,2.1875,0,0,0,0,0
2.909,2.5,0,0,0,0,0
2.91,1.875,0,0,0,0,0
2.911,1.875,0,0,0,0,0
2.912,2.1875,0,0,0,0,0
2.913,2.5,0,0,0,0,0
2.914,2.5,0,0,0,0,0
2.915,2.5,0,0,0,0,0
2.916,2.1875,0,0,0,0,0
2.917,1.875,0,0,0,0,0
2.918,2.1875,0,0,0,0,0
2.919,1.875,0,0,0,0,0
2.92,2.1875,0,0,0,0,0
2.921,1.875,0,0,0,0,0
2.922,1.875,0,0,0,0,0
2.923,1.875,0,0,0,0,0
2.924,1.5625,0,0,0,0,0
2.925,1.25,0,0,0,0,0
2.926,1.25,0,0,0,0,0
2.927,1.25,0,0,0,0,0
2.928,1.5625,0,0,0,0,0
2.929,1.875,0,0,0,0,0
2.93,2.1875,0,0,0,0,0
2.931,1.875,0,0,0,0,0
2.932,2.5,0,0,0,0,0
2.933,2.5,0,0,0,0,0
2.934,2.1875,0,0,0,0,0
2.935,1.875,0,0,0,0,0
2.936,0.9375,0,0,0,0,0
2.937,0.625,0,0,0,0,0
2.938,0.625,0,0,0,0,0
2.939,0.625,0,0,0,0,0
2.94,1.25,0,0,0,0,0
2.941,1.25,0,0,0,0,0
2.942,1.25,0,0,0,0,0
2.943,1.25,0,0,0,0,0
2.944,0.3125,0,0,0,0,0
2.945,0,0,0,0,0,0
2.946,0.625,0,0,0,0,0
2.947,0.625,0,0,0,0,0
2.948,0.3125,0,0,0,0,0
2.949,1.25,0,0,0,0,0
2.95,0.3125,0,0,0,0,0
2.951,0,0,0,0,0,0
2.952,0.625,0,0,0,0,0
2.953,0.625,0,0,0,0,0
2.954,0.625,0,0,0,0,0
2.955,0,0,0,0,0,0
2.956,0.625,0,0,0,0,0
2.957,0.625,0,0,0,0,0
2.958,0.3125,0,0,0,0,0
2.959,0.625,0,0,0,0,0
2.96,0.9375,0,0,0,0,0
2.961,1.25,0,0,0,0,0
2.962,0.9375,0,0,0,0,0
2.963,0.625,0,0,0,0,0
2.964,0.625,0,0,0,0,0
2.965,0.625,0,0,0,0,0
2.966,0.3125,0,0,0,0,0
2.967,0,0,0,0,0,0
2.968,0,0,0,0,0,0
2.969,0,0,0,0,0,0
2.97,-0.625,0,0,0,0,0
2.971,0,0,0,0,0,0
2.972,0.3125,0,0,0,0,0
2.973,0.625,0,0,0,0,0
2.974,0.625,0,0,0,0,0
2.975,0.625,0,0,0,0,0
2.976,0.625,0,0,0,0,0
2.977,0,0,0,0,0,0
2.978,0.3125,0,0,0,0,0
2.979,0,0,0,0,0,0
2.98,0,0,0,0,0,0
2.981,0,0,0,0,0,0
2.982,0.3125,0,0,0,0,0
2.983,0.625,0,0,0,0,0
2.984,0.3125,0,0,0,0,0
2.985,0,0,0,0,0,0
2.986,-0.625,0,0,0,0,0
2.987,0,0,0,0,0,0
2.988,0,0,0,0,0,0
2.989,0,0,0,0,0,0
2.99,-0.3125,0,0,0,0,0
2.991,-0.625,0,0,0,0,0
2.992,-0.625,0,0,0,0,0
2.993,-0.625,0,0,0,0,0
2.994,-0.625,0,0,0,0,0
2.995,-0.625,0,0,0,0,0
2.996,-0.625,0,0,0,0,0
2.997,-0.625,0,0,0,0,0
2.998,-0.3125,0,0,0,0,0
2.999,0,0,0,0,0,0
3,-0.625,0,0,0,0,0
3.001,0,0,0,0,0,0
3.002,-0.9375,0,0,0,0,0
3.003,-1.25,1,0,0,0,0
3.004,-1.5625,0,0,0,0,0
3.005,-1.875,0,0,0,0,0
3.006,-1.875,0,0,0,0,0
3.007,-1.875,0,0,0,0,0
3.008,-1.5625,0,0,0,0,0
3.009,-1.25,0,0,0,0,0
3.01,-1.875,0,0,0,0,0
3.011,-2.5,0,0,0,0,0
3.012,-3.125,0,0,0,0,0
3.013,-3.125,0,0,0,0,0
3.014,-2.5,0,0,0,0,0
3.015,-2.5,0,0,0,0,0
3.016,-4.0625,0,0,0,0,0
3.017,-5.625,0,0,0,0,0
3.018,-6.25,0,0,0,0,0
3.019,-7.5,0,0,0,0,0
3.02,-7.8125,0,0,0,0,0
3.021,-8.75,0,0,0,0,0
3.022,-10.313,0,0,0,0,0
3.023,-11.25,0,0,0,0,0
3.024,-13.438,0,0,0,0,0
3.025,-15.625,0,0,0,0,0
3.026,-16.25,0,0,0,0,0
3.027,-16.25,0,0,0,0,0
3.028,-16.875,0,0,0,0,0
3.029,-18.125,0,0,0,0,0
3.03,-18.438,0,0,0,0,0
3.031,-19.375,0,0,0,0,0
3.032,-20,0,0,0,0,0
3.033,-20,0,0,0,0,0
3.034,-20,0,0,0,0,0
3.035,-19.375,0,0,0,0,0
3.036,-20,0,0,0,0,0
3.037,-20,0,0,0,0,0
3.038,-19.375,0,0,0,0,0
3.039,-18.75,0,0,0,0,0
3.04,-18.438,0,0,0,0,0
3.041,-18.75,0,0,0,0,0
3.042,-18.125,0,0,0,0,0
3.043,-18.75,0,0,0,0,0
3.044,-20.938,0,0,0,0,0
3.045,-23.125,0,0,0,0,0
3.046,-23.125,0,0,0,0,0
3.047,-23.125,0,0,0,0,0
3.048,-23.75,0,0,0,0,0
3.049,-24.375,0,0,0,0,0
3.05,-25.625,0,0,0,0,0
3.051,-25.625,0,0,0,0,0
3.052,-25.625,0,0,0,0,0
3.053,-25.625,0,0,0,0,0
3.054,-24.375,0,0,0,0,0
3.055,-25,0,0,0,0,0
3.056,-25.625,0,0,0,0,0
3.057,-26.25,0,0,0,0,0
3.058,-28.125,0,0,0,0,0
3.059,-30,0,0,0,0,0
3.06,-31.875,0,0,0,0,0
3.061,-33.125,0,0,0,0,0
3.062,-34.688,0,0,0,0,0
3.063,-36.25,0,0,0,0,0
3.064,-36.875,0,1,0,0,0
3.065,-36.875,0,0,0,0,0
3.066,-36.563,0,0,0,0,0
3.067,-35.625,0,0,0,0,0
3.068,-34.375,0,0,0,0,0
3.069,-32.5,0,0,0,0,0
3.07,-32.5,0,0,0,0,0
3.071,-32.5,0,0,0,0,0
3.072,-31.563,0,0,0,0,0
3.073,-30,0,0,0,0,0
3.074,-28.438,0,0,0,0,0
3.075,-26.25,0,0,0,0,0
3.076,-24.375,0,0,0,0,0
3.077,-23.125,0,0,0,0,0
3.078,-20.313,0,0,0,0,0
3.079,-18.125,0,0,0,0,0
3.08,-16.25,0,0,0,0,0
3.081,-13.75,0,0,0,0,0
3.082,-12.188,0,0,0,0,0
3.083,-10.625,0,0,0,0,0
3.084,-10,0,0,0,0,0
3.085,-9.375,0,0,0,0,0
3.086,-7.1875,0,0,0,0,0
3.087,-5.625,0,0,0,0,0
3.088,-5,0,0,0,0,0
3.089,-3.75,0,0,0,0,0
3.09,-3.125,0,0,0,0,0
3.091,-3.125,0,0,0,0,0
3.092,-2.1875,0,0,0,0,0
3.093,-1.25,0,0,0,0,0
3.094,-0.9375,0,0,0,0,0
3.095,-0.625,0,0,0,0,0
3.096,-0.3125,0,0,0,0,0
3.097,-0.625,0,0,1,0,0
3.098,-0.3125,0,0,0,0,0
3.099,-0.625,0,0,0,0,0
3.1,0,0,0,0,0,0
3.101,0.625,0,0,0,0,0
3.102,1.25,0,0,0,0,0
3.103,1.25,0,0,0,0,0
3.104,1.25,0,0,0,0,0
3.105,1.25,0,0,0,0,0
3.106,1.5625,0,0,0,0,0
3.107,2.5,0,0,0,0,0
3.108,2.1875,0,0,0,0,0
3.109,2.5,0,0,0,0,0
3.11,2.8125,0,0,0,0,0
3.111,2.5,0,0,0,0,0
3.112,1.875,0,0,0,0,0
3.113,1.25,0,0,0,0,0
3.114,2.8125,0,0,0,0,0
3.115,3.75,0,0,0,0,0
3.116,2.8125,0,0,0,0,0
3.117,2.5,0,0,0,0,0
3.118,2.1875,0,0,0,0,0
3.119,1.875,0,0,0,0,0
3.12,2.8125,0,0,0,0,0
3.121,3.125,0,0,0,0,0
3.122,2.8125,0,0,0,0,0
3.123,3.125,0,0,0,0,0
3.124,3.125,0,0,0,0,0
3.125,3.125,0,0,0,0,0
3.126,2.8125,0,0,0,0,0
3.127,3.125,0,0,0,0,0
3.128,4.0625,0,0,0,0,0
3.129,3.75,0,0,0,0,0
3.13,4.0625,0,0,0,0,0
3.131,3.75,0,0,0,0,0
3.132,3.75,0,0,0,0,0
3.133,4.375,0,0,0,0,0
3.134,4.375,0,0,0,0,0
3.135,4.375,0,0,0,0,0
3.136,4.375,0,0,0,0,0
3.137,3.75,0,0,0,0,0
3.138,4.0625,0,0,0,0,0
3.139,4.375,0,0,0,0,0
3.14,4.0625,0,0,0,0,0
3.141,4.375,0,0,0,0,0
3.142,4.375,0,0,0,0,0
3.143,4.375,0,0,0,0,0
3.144,3.75,0,0,0,0,0
3.145,3.75,0,0,0,0,0
3.146,3.125,0,0,0,0,0
3.147,2.5,0,0,0,0,0
3.148,3.4375,0,0,0,0,0
3.149,3.125,0,0,0,0,0
3.15,3.4375,0,0,0,0,0
3.151,3.75,0,0,0,0,0
3.152,3.4375,0,0,0,0,0
3.153,3.125,0,0,0,0,0
3.154,4.375,0,0,0,0,0
3.155,4.375,0,0,0,0,0
3.156,4.0625,0,0,0,0,0
3.157,3.75,0,0,0,0,0
3.158,3.4375,0,0,0,0,0
3.159,3.125,0,0,0,0,0
3.16,4.0625,0,0,0,0,0
3.161,4.375,0,0,0,0,0
3.162,3.75,0,0,0,0,0
3.163,3.75,0,0,0,0,0
3.164,3.4375,0,0,0,0,0
3.165,3.75,0,0,0,0,0
3.166,3.75,0,0,0,0,0
3.167,4.375,0,0,0,0,0
3.168,4.375,0,0,0,0,0
3.169,4.375,0,0,0,0,0
3.17,4.0625,0,0,0,0,0
3.171,3.75,0,0,0,0,0
3.172,3.75,0,0,0,0,0
3.173,3.75,0,0,0,0,0
3.174,4.6875,0,0,0,0,0
3.175,5.625,0,0,0,0,0
3.176,5,0,0,0,0,0
3.177,4.375,0,0,0,0,0
3.178,4.375,0,0,0,0,0
3.179,4.375,0,0,0,0,0
3.18,5,0,0,0,0,0
3.181,5,0,0,0,0,0
3.182,5.625,0,0,0,0,0
3.183,5.625,0,0,0,0,0
3.184,5,0,0,0,0,0
3.185,5.625,0,0,0,0,0
3.186,5.625,0,0,0,0,0
3.187,5.625,0,0,0,0,0
3.188,6.25,0,0,0,0,0
3.189,6.25,0,0,0,0,0
3.19,5.625,0,0,0,0,0
3.191,5.625,0,0,0,0,0
3.192,5.625,0,0,0,0,0
3.193,6.25,0,0,0,0,0
3.194,6.5625,0,0,0,0,0
3.195,6.875,0,0,0,0,0
3.196,7.1875,0,0,0,0,0
3.197,6.875,0,0,0,0,0
3.198,7.1875,0,0,0,0,0
3.199,7.5,0,0,0,0,0
3.2,7.5,0,0,0,0,0
3.201,7.5,0,0,0,0,0
3.202,7.8125,0,0,0,0,0
3.203,7.5,0,0,0,0,0
3.204,6.875,0,0,0,0,0
3.205,6.25,0,0,0,0,0
3.206,6.25,0,0,0,0,0
3.207,6.25,0,0,0,0,0
3.208,6.5625,0,0,0,0,0
3.209,6.875,0,0,0,0,0
3.21,6.5625,0,0,0,0,0
3.211,6.875,0,0,0,0,0
3.212,6.25,0,0,0,0,0
3.213,6.25,0,0,0,0,0
3.214,6.5625,0,0,0,0,0
3.215,6.875,0,0,0,0,0
3.216,6.875,0,0,0,0,0
3.217,6.875,0,0,0,0,0
3.218,6.875,0,0,0,0,0
3.219,6.875,0,0,0,0,0
3.22,7.5,0,0,0,0,0
3.221,7.5,0,0,0,0,0
3.222,7.5,0,0,0,0,0
3.223,7.5,0,0,0,0,0
3.224,6.875,0,0,0,0,0
3.225,6.875,0,0,0,0,0
3.226,8.125,0,0,0,0,0
3.227,8.75,0,0,0,0,0
3.228,8.75,0,0,0,0,0
3.229,9.375,0,0,0,0,0
3.23,9.6875,0,0,0,0,0
3.231,9.375,0,0,0,0,0
3.232,9.0625,0,0,0,0,0
3.233,9.375,0,0,0,0,0
3.234,9.375,0,0,0,0,0
3.235,10,0,0,0,0,0
3.236,10,0,0,0,0,0
3.237,10,0,0,0,0,0
3.238,9.6875,0,0,0,0,0
3.239,9.375,0,0,0,0,0
3.24,9.6875,0,0,0,0,0
3.241,10,0,0,0,0,0
3.242,9.6875,0,0,0,0,0
3.243,9.375,0,0,0,0,0
3.244,9.375,0,0,0,0,0
3.245,9.375,0,0,0,0,0
3.246,9.375,0,0,0,0,0
3.247,9.375,0,0,0,0,0
3.248,10,0,0,0,0,0
3.249,10.625,0,0,0,0,0
3.25,10.625,0,0,0,0,0
3.251,10.625,0,0,0,0,0
3.252,10.625,0,0,0,0,0
3.253,10.625,0,0,0,0,0
3.254,10.938,0,0,0,0,0
3.255,11.25,0,0,0,0,0
3.256,11.25,0,0,0,0,0
3.257,11.25,0,0,0,0,0
3.258,11.25,0,0,0,0,0
3.259,11.875,0,0,0,0,0
3.26,12.5,0,0,0,0,0
3.261,13.75,0,0,0,0,0
3.262,12.813,0,0,0,0,0
3.263,13.125,0,0,0,0,0
3.264,13.438,0,0,0,0,0
3.265,13.75,0,0,0,0,0
3.266,13.438,0,0,0,0,0
3.267,13.75,0,0,0,0,0
3.268,14.063,0,0,0,0,0
3.269,15,0,0,0,0,0
3.27,15.313,0,0,0,0,0
3.271,15.625,0,0,0,0,0
3.272,15.313,0,0,0,0,0
3.273,15.625,0,0,0,0,0
3.274,15.938,0,0,0,0,0
3.275,16.25,0,0,0,0,0
3.276,16.563,0,0,0,0,0
3.277,16.25,0,0,0,0,0
3.278,16.25,0,0,0,0,0
3.279,15.625,0,0,0,0,0
3.28,16.563,0,0,0,0,0
3.281,16.875,0,0,0,0,0
3.282,17.5,0,0,0,0,0
3.283,17.5,0,0,0,0,0
3.284,17.188,0,0,0,0,0
3.285,17.5,0,0,0,0,0
3.286,17.813,0,0,0,0,0
3.287,18.125,0,0,0,0,0
3.288,18.75,0,0,0,0,0
3.289,18.75,0,0,0,0,0
3.29,19.063,0,0,0,0,0
3.291,19.375,0,0,0,0,0
3.292,19.375,0,0,0,0,0
3.293,19.375,0,0,0,0,0
3.294,20,0,0,0,0,0
3.295,20.625,0,0,0,0,0
3.296,20.625,0,0,0,0,0
3.297,21.25,0,0,0,0,0
3.298,20.625,0,0,0,0,0
3.299,20,0,0,0,0,0
3.3,21.875,0,0,0,0,0
3.301,22.5,0,0,0,0,0
3.302,22.813,0,0,0,0,0
3.303,23.125,0,0,0,0,0
3.304,23.125,0,0,0,0,0
3.305,23.125,0,0,0,0,0
3.306,23.438,0,0,0,0,0
3.307,23.75,0,0,0,0,0
3.308,23.75,0,0,0,0,0
3.309,23.75,0,0,0,0,0
3.31,23.75,0,0,0,0,0
3.311,24.375,0,0,0,0,0
3.312,24.375,0,0,0,0,0
3.313,25,0,0,0,0,0
3.314,25,0,0,0,0,0
3.315,26.25,0,0,0,0,0
3.316,25.625,0,0,0,0,0
3.317,25,0,0,0,0,0
3.318,25.625,0,0,0,0,0
3.319,25.625,0,0,0,0,0
3.32,25.625,0,0,0,0,0
3.321,26.25,0,0,0,0,0
3.322,26.25,0,0,0,0,0
3.323,26.25,0,0,0,0,0
3.324,25.938,0,0,0,0,0
3.325,26.25,0,0,0,0,0
3.326,26.25,0,0,0,0,0
3.327,26.25,0,0,0,0,0
3.328,27.5,0,0,0,0,0
3.329,28.125,0,0,0,0,0
3.33,27.813,0,0,0,0,0
3.331,28.125,0,0,0,0,0
3.332,27.813,0,0,0,0,0
3.333,28.125,0,0,0,0,0
3.334,27.813,0,0,0,0,0
3.335,27.5,0,0,0,0,0
3.336,28.125,0,0,0,0,0
3.337,28.125,0,0,0,0,0
3.338,28.438,0,0,0,1,0
3.339,28.125,0,0,0,0,0
3.34,27.813,0,0,0,0,0
3.341,28.125,0,0,0,0,0
3.342,27.5,0,0,0,0,0
3.343,27.5,0,0,0,0,0
3.344,27.5,0,0,0,0,0
3.345,28.125,0,0,0,0,0
3.346,28.125,0,0,0,0,0
3.347,28.125,0,0,0,0,0
3.348,28.125,0,0,0,0,0
3.349,28.125,0,0,0,0,0
3.35,27.813,0,0,0,0,0
3.351,28.125,0,0,0,0,0
3.352,27.188,0,0,0,0,0
3.353,26.875,0,0,0,0,0
3.354,27.188,0,0,0,0,0
3.355,27.5,0,0,0,0,0
3.356,27.813,0,0,0,0,0
3.357,28.125,0,0,0,0,0
3.358,26.563,0,0,0,0,0
3.359,26.25,0,0,0,0,0
3.36,25.938,0,0,0,0,0
3.361,25.625,0,0,0,0,0
3.362,25.625,0,0,0,0,0
3.363,25,0,0,0,0,0
3.364,23.75,0,0,0,0,0
3.365,22.5,0,0,0,0,0
3.366,22.813,0,0,0,0,0
3.367,22.5,0,0,0,0,0
3.368,22.813,0,0,0,0,0
3.369,22.5,0,0,0,0,0
3.37,21.875,0,0,0,0,0
3.371,21.25,0,0,0,0,0
3.372,21.563,0,0,0,0,0
3.373,21.875,0,0,0,0,0
3.374,21.563,0,0,0,0,0
3.375,21.875,0,0,0,0,0
3.376,20,0,0,0,0,0
3.377,19.375,0,0,0,0,0
3.378,18.438,0,0,0,0,0
3.379,18.125,0,0,0,0,0
3.38,18.125,0,0,0,0,0
3.381,18.125,0,0,0,0,0
3.382,18.125,0,0,0,0,0
3.383,17.5,0,0,0,0,0
3.384,16.25,0,0,0,0,0
3.385,15,0,0,0,0,0
3.386,14.688,0,0,0,0,0
3.387,15,0,0,0,0,0
3.388,14.375,0,0,0,0,0
3.389,14.375,0,0,0,0,0
3.39,13.75,0,0,0,0,0
3.391,13.125,0,0,0,0,0
3.392,12.5,0,0,0,0,0
3.393,11.875,0,0,0,0,0
3.394,12.188,0,0,0,0,0
3.395,11.25,0,0,0,0,0
3.396,10.625,0,0,0,0,0
3.397,9.375,0,0,0,0,0
3.398,9.0625,0,0,0,0,0
3.399,9.375,0,0,0,0,0
3.4,8.75,0,0,0,0,0
3.401,8.75,0,0,0,0,0
3.402,8.125,0,0,0,0,0
3.403,8.125,0,0,0,0,0
3.404,6.875,0,0,0,0,0
3.405,6.25,0,0,0,0,0
3.406,5.9375,0,0,0,0,0
3.407,6.25,0,0,0,0,0
3.408,5.625,0,0,0,0,0
3.409,5,0,0,0,0,0
3.41,4.375,0,0,0,0,0
3.411,3.125,0,0,0,0,0
3.412,3.4375,0,0,0,0,0
3.413,3.125,0,0,0,0,0
3.414,3.4375,0,0,0,0,0
3.415,3.125,0,0,0,0,0
3.416,2.8125,0,0,0,0,0
3.417,1.875,0,0,0,0,0
3.418,1.25,0,0,0,0,0
3.419,1.25,0,0,0,0,0
3.42,0.3125,0,0,0,0,0
3.421,0.625,0,0,0,0,0
3.422,0.9375,0,0,0,0,1
3.423,0.625,0,0,0,0,0
3.424,0.3125,0,0,0,0,0
3.425,-0.625,0,0,0,0,0
3.426,-0.3125,0,0,0,0,0
3.427,-0.625,0,0,0,0,0
3.428,0,0,0,0,0,0
3.429,0,0,0,0,0,0
3.43,-0.3125,0,0,0,0,0
3.431,-0.625,0,0,0,0,0
3.432,-0.9375,0,0,0,0,0
3.433,-1.25,0,0,0,0,0
3.434,-0.9375,0,0,0,0,0
3.435,-0.625,0,0,0,0,0
3.436,-1.25,0,0,0,0,0
3.437,-2.5,0,0,0,0,0
3.438,-2.5,0,0,0,0,0
3.439,-2.5,0,0,0,0,0
3.44,-2.1875,0,0,0,0,0
3.441,-1.875,0,0,0,0,0
3.442,-1.5625,0,0,0,0,0
3.443,-1.25,0,0,0,0,0
3.444,-2.1875,0,0,0,0,0
3.445,-2.5,0,0,0,0,0
3.446,-2.5,0,0,0,0,0
3.447,-2.5,0,0,0,0,0
3.448,-2.5,0,0,0,0,0
3.449,-2.5,0,0,0,0,0
3.45,-2.8125,0,0,0,0,0
3.451,-3.125,0,0,0,0,0
3.452,-2.5,0,0,0,0,0
3.453,-2.5,0,0,0,0,0
3.454,-1.5625,0,0,0,0,0
3.455,-1.25,0,0,0,0,0
3.456,-2.5,0,0,0,0,0
3.457,-3.125,0,0,0,0,0
3.458,-3.75,0,0,0,0,0
3.459,-4.375,0,0,0,0,0
3.46,-4.0625,0,0,0,0,0
3.461,-3.75,0,0,0,0,0
3.462,-4.375,0,0,0,0,0
3.463,-5,0,0,0,0,0
3.464,-5,0,0,0,0,0
3.465,-5,0,0,0,0,0
3.466,-5,0,0,0,0,0
3.467,-4.375,0,0,0,0,0
3.468,-4.375,0,0,0,0,0
3.469,-3.75,0,0,0,0,0
3.47,-3.4375,0,0,0,0,0
3.471,-3.75,0,0,0,0,0
3.472,-3.75,0,0,0,0,0
3.473,-3.75,0,0,0,0,0
3.474,-3.4375,0,0,0,0,0
3.475,-3.75,0,0,0,0,0
3.476,-3.75,0,0,0,0,0
3.477,-3.75,0,0,0,0,0
3.478,-3.4375,0,0,0,0,0
3.479,-3.75,0,0,0,0,0
3.48,-3.125,0,0,0,0,0
3.481,-3.125,0,0,0,0,0
3.482,-3.125,0,0,0,0,0
3.483,-3.125,0,0,0,0,0
3.484,-3.75,0,0,0,0,0
3.485,-4.375,0,0,0,0,0
3.486,-4.0625,0,0,0,0,0
3.487,-3.75,0,0,0,0,0
3.488,-3.75,0,0,0,0,0
3.489,-3.125,0,0,0,0,0
3.49,-3.4375,0,0,0,0,0
3.491,-3.75,0,0,0,0,0
3.492,-3.125,0,0,0,0,0
3.493,-3.125,0,0,0,0,0
3.494,-3.125,0,0,0,0,0
3.495,-3.125,0,0,0,0,0
3.496,-4.0625,0,0,0,0,0
3.497,-5,0,0,0,0,0
3.498,-5.625,0,0,0,0,0
3.499,-5.625,0,0,0,0,0
3.5,-4.375,0,0,0,0,0
3.501,-3.75,0,0,0,0,0
3.502,-3.4375,0,0,0,0,0
3.503,-3.125,0,0,0,0,0
3.504,-4.0625,0,0,0,0,0
3.505,-4.375,0,0,0,0,0
3.506,-4.6875,0,0,0,0,0
3.507,-4.375,0,0,0,0,0
3.508,-4.375,0,0,0,0,0
3.509,-4.375,0,0,0,0,0
3.51,-4.375,0,0,0,0,0
3.511,-5,0,0,0,0,0
3.512,-5.3125,0,0,0,0,0
3.513,-5.625,0,0,0,0,0
3.514,-4.375,0,0,0,0,0
3.515,-4.375,0,0,0,0,0
3.516,-4.375,0,0,0,0,0
3.517,-4.375,0,0,0,0,0
3.518,-3.4375,0,0,0,0,0
3.519,-3.75,0,0,0,0,0
3.52,-4.0625,0,0,0,0,0
3.521,-4.375,0,0,0,0,0
3.522,-4.0625,0,0,0,0,0
3.523,-3.75,0,0,0,0,0
3.524,-4.0625,0,0,0,0,0
3.525,-5,0,0,0,0,0
3.526,-5,0,0,0,0,0
3.527,-4.375,0,0,0,0,0
3.528,-4.6875,0,0,0,0,0
3.529,-4.375,0,0,0,0,0
3.53,-5,0,0,0,0,0
3.531,-5,0,0,0,0,0
3.532,-5.625,0,0,0,0,0
3.533,-5.625,0,0,0,0,0
3.534,-4.6875,0,0,0,0,0
3.535,-3.75,0,0,0,0,0
3.536,-4.0625,0,0,0,0,0
3.537,-3.75,0,0,0,0,0
3.538,-4.0625,0,0,0,0,0
3.539,-4.375,0,0,0,0,0
3.54,-4.375,0,0,0,0,0
3.541,-4.375,0,0,0,0,0
3.542,-4.0625,0,0,0,0,0
3.543,-3.75,0,0,0,0,0
3.544,-4.375,0,0,0,0,0
3.545,-4.375,0,0,0,0,0
3.546,-4.0625,0,0,0,0,0
3.547,-4.375,0,0,0,0,0
3.548,-4.0625,0,0,0,0,0
3.549,-4.375,0,0,0,0,0
3.55,-4.6875,0,0,0,0,0
3.551,-4.375,0,0,0,0,0
3.552,-5,0,0,0,0,0
3.553,-4.375,0,0,0,0,0
3.554,-4.6875,0,0,0,0,0
3.555,-5,0,0,0,0,0
3.556,-5,0,0,0,0,0
3.557,-5,0,0,0,0,0
3.558,-5,0,0,0,0,0
3.559,-5.625,0,0,0,0,0
3.56,-5,0,0,0,0,0
3.561,-5.625,0,0,0,0,0
3.562,-5,0,0,0,0,0
3.563,-5.625,0,0,0,0,0
3.564,-5.625,0,0,0,0,0
3.565,-5.625,0,0,0,0,0
3.566,-5.625,0,0,0,0,0
3.567,-5.625,0,0,0,0,0
3.568,-5.3125,0,0,0,0,0
3.569,-5.625,0,0,0,0,0
3.57,-5.625,0,0,0,0,0
3.571,-6.25,0,0,0,0,0
3.572,-5.9375,0,0,0,0,0
3.573,-5,0,0,0,0,0
3.574,-4.375,0,0,0,0,0
3.575,-3.75,0,0,0,0,0
3.576,-4.375,0,0,0,0,0
3.577,-4.375,0,0,0,0,0
3.578,-4.375,0,0,0,0,0
3.579,-4.375,0,0,0,0,0
3.58,-4.375,0,0,0,0,0
3.581,-4.375,0,0,0,0,0
3.582,-4.6875,0,0,0,0,0
3.583,-5,0,0,0,0,0
3.584,-5.3125,0,0,0,0,0
3.585,-6.25,0,0,0,0,0
3.586,-5.9375,0,0,0,0,0
3.587,-5.625,0,0,0,0,0
3.588,-5.9375,0,0,0,0,0
3.589,-5.625,0,0,0,0,0
3.59,-5.625,0,0,0,0,0
3.591,-5.625,0,0,0,0,0
3.592,-5.9375,0,0,0,0,0
3.593,-6.25,0,0,0,0,0
3.594,-5.625,0,0,0,0,0
3.595,-5,0,0,0,0,0
3.596,-4.6875,0,0,0,0,0
3.597,-5,0,0,0,0,0
3.598,-5,0,0,0,0,0
3.599,-5,0,0,0,0,0
3.6,-4.0625,0,0,0,0,0
3.601,-3.75,0,0,0,0,0
3.602,-4.6875,0,0,0,0,0
3.603,-5,0,0,0,0,0
3.604,-5,0,0,0,0,0
3.605,-5,0,0,0,0,0
3.606,-5,0,0,0,0,0
3.607,-4.375,0,0,0,0,0
3.608,-5.3125,0,0,0,0,0
3.609,-5.625,0,0,0,0,0
3.61,-5.3125,0,0,0,0,0
3.611,-5,0,0,0,0,0
3.612,-5,0,0,0,0,0
3.613,-5,0,0,0,0,0
3.614,-5,0,0,0,0,0
3.615,-5,0,0,0,0,0
3.616,-5.625,0,0,0,0,0
3.617,-6.25,0,0,0,0,0
3.618,-5.9375,0,0,0,0,0
3.619,-6.25,0,0,0,0,0
3.62,-5.625,0,0,0,0,0
3.621,-5.625,0,0,0,0,0
3.622,-5.625,0,0,0,0,0
3.623,-6.25,0,0,0,0,0
3.624,-5.9375,0,0,0,0,0
3.625,-5.625,0,0,0,0,0
3.626,-5.9375,0,0,0,0,0
3.627,-6.25,0,0,0,0,0
3.628,-6.5625,0,0,0,0,0
3.629,-6.25,0,0,0,0,0
3.63,-6.875,0,0,0,0,0
3.631,-6.875,0,0,0,0,0
3.632,-6.5625,0,0,0,0,0
3.633,-6.25,0,0,0,0,0
3.634,-6.25,0,0,0,0,0
3.635,-5.625,0,0,0,0,0
3.636,-5.3125,0,0,0,0,0
3.637,-5.625,0,0,0,0,0
3.638,-5.9375,0,0,0,0,0
3.639,-6.875,0,0,0,0,0
3.64,-6.25,0,0,0,0,0
3.641,-6.25,0,0,0,0,0
3.642,-5.9375,0,0,0,0,0
3.643,-6.875,0,0,0,0,0
3.644,-6.5625,0,0,0,0,0
3.645,-6.25,0,0,0,0,0
3.646,-6.25,0,0,0,0,0
3.647,-6.25,0,0,0,0,0
3.648,-5.9375,0,0,0,0,0
3.649,-5.625,0,0,0,0,0
3.65,-5.3125,0,0,0,0,0
3.651,-5.625,0,0,0,0,0
3.652,-5.625,0,0,0,0,0
3.653,-5.625,0,0,0,0,0
3.654,-5.625,0,0,0,0,0
3.655,-5,0,0,0,0,0
3.656,-5,0,0,0,0,0
3.657,-5.625,0,0,0,0,0
3.658,-6.875,0,0,0,0,0
3.659,-7.5,0,0,0,0,0
3.66,-7.1875,0,0,0,0,0
3.661,-7.5,0,0,0,0,0
3.662,-7.1875,0,0,0,0,0
3.663,-6.875,0,0,0,0,0
3.664,-7.1875,0,0,0,0,0
3.665,-7.5,0,0,0,0,0
3.666,-7.1875,0,0,0,0,0
3.667,-6.875,0,0,0,0,0
3.668,-6.875,0,0,0,0,0
3.669,-6.875,0,0,0,0,0
3.67,-6.875,0,0,0,0,0
3.671,-7.5,0,0,0,0,0
3.672,-7.5,0,0,0,0,0
3.673,-7.5,0,0,0,0,0
3.674,-6.875,0,0,0,0,0
3.675,-6.25,0,0,0,0,0
3.676,-6.25,0,0,0,0,0
3.677,-6.25,0,0,0,0,0
3.678,-5.9375,0,0,0,0,0
3.679,-5.625,0,0,0,0,0
3.68,-5.625,0,0,0,0,0
3.681,-5.625,0,0,0,0,0
3.682,-5,0,0,0,0,0
3.683,-5.625,0,0,0,0,0
3.684,-5.9375,0,0,0,0,0
3.685,-6.875,0,0,0,0,0
3.686,-7.1875,0,0,0,0,0
3.687,-6.875,0,0,0,0,0
3.688,-6.5625,0,0,0,0,0
3.689,-6.25,0,0,0,0,0
3.69,-6.5625,0,0,0,0,0
3.691,-5.625,0,0,0,0,0
3.692,-6.25,0,0,0,0,0
3.693,-5.625,0,0,0,0,0
3.694,-5.9375,0,0,0,0,0
3.695,-6.25,0,0,0,0,0
3.696,-6.25,0,0,0,0,0
3.697,-6.25,0,0,0,0,0
3.698,-6.5625,0,0,0,0,0
3.699,-6.875,0,0,0,0,0
3.7,-6.5625,0,0,0,0,0
3.701,-6.875,0,0,0,0,0
3.702,-6.25,0,0,0,0,0
3.703,-6.875,0,0,0,0,0
3.704,-7.1875,0,0,0,0,0
3.705,-7.5,0,0,0,0,0
3.706,-7.1875,0,0,0,0,0
3.707,-6.875,0,0,0,0,0
3.708,-7.1875,0,0,0,0,0
3.709,-7.5,0,0,0,0,0
3.71,-7.1875,0,0,0,0,0
3.711,-6.875,0,0,0,0,0
3.712,-7.5,0,0,0,0,0
3.713,-7.5,0,0,0,0,0
3.714,-7.5,0,0,0,0,0
3.715,-6.875,0,0,0,0,0
3.716,-7.5,0,0,0,0,0
3.717,-7.5,0,0,0,0,0
3.718,-7.8125,0,0,0,0,0
3.719,-7.5,0,0,0,0,0
3.72,-7.8125,0,0,0,0,0
3.721,-7.5,0,0,0,0,0
3.722,-7.5,0,0,0,0,0
3.723,-7.5,0,0,0,0,0
3.724,-7.1875,0,0,0,0,0
3.725,-6.875,0,0,0,0,0
3.726,-6.5625,0,0,0,0,0
3.727,-6.875,0,0,0,0,0
3.728,-7.1875,0,0,0,0,0
3.729,-6.875,0,0,0,0,0
3.73,-7.1875,0,0,0,0,0
3.731,-7.5,0,0,0,0,0
3.732,-7.8125,0,0,0,0,0
3.733,-8.125,0,0,0,0,0
3.734,-7.1875,0,0,0,0,0
3.735,-6.875,0,0,0,0,0
3.736,-6.875,0,0,0,0,0
3.737,-7.5,0,0,0,0,0
3.738,-6.5625,0,0,0,0,0
3.739,-6.25,0,0,0,0,0
3.74,-6.875,0,0,0,0,0
3.741,-6.875,0,0,0,0,0
3.742,-6.875,0,0,0,0,0
3.743,-6.875,0,0,0,0,0
3.744,-6.875,0,0,0,0,0
3.745,-6.875,0,0,0,0,0
3.746,-6.875,0,0,0,0,0
3.747,-6.875,0,0,0,0,0
3.748,-6.25,0,0,0,0,0
3.749,-6.25,0,0,0,0,0
3.75,-6.875,0,0,0,0,0
3.751,-7.5,0,0,0,0,0
3.752,-7.5,0,0,0,0,0
3.753,-8.75,0,0,0,0,0
3.754,-8.125,0,0,0,0,0
3.755,-8.125,0,0,0,0,0
3.756,-8.4375,0,0,0,0,0
3.757,-7.5,0,0,0,0,0
3.758,-8.4375,0,0,0,0,0
3.759,-8.75,0,0,0,0,0
3.76,-9.0625,0,0,0,0,0
3.761,-8.75,0,0,0,0,0
3.762,-9.375,0,0,0,0,0
3.763,-8.75,0,0,0,0,0
3.764,-9.0625,0,0,0,0,0
3.765,-8.75,0,0,0,0,0
3.766,-9.375,0,0,0,0,0
3.767,-9.375,0,0,0,0,0
3.768,-8.75,0,0,0,0,0
3.769,-8.75,0,0,0,0,0
3.77,-8.4375,0,0,0,0,0
3.771,-8.75,0,0,0,0,0
3.772,-8.125,0,0,0,0,0
3.773,-8.75,0,0,0,0,0
3.774,-8.75,0,0,0,0,0
3.775,-8.125,0,0,0,0,0
3.776,-8.125,0,0,0,0,0
3.777,-7.5,0,0,0,0,0
3.778,-8.125,0,0,0,0,0
3.779,-8.75,0,0,0,0,0
3.78,-7.8125,0,0,0,0,0
3.781,-7.5,0,0,0,0,0
3.782,-7.1875,0,0,0,0,0
3.783,-6.875,0,0,0,0,0
3.784,-8.125,0,0,0,0,0
3.785,-8.75,0,0,0,0,0
3.786,-8.75,0,0,0,0,0
3.787,-8.75,0,0,0,0,0
3.788,-8.4375,0,0,0,0,0
3.789,-8.75,0,0,0,0,0
3.79,-8.75,0,0,0,0,0
3.791,-9.375,0,0,0,0,0
3.792,-9.0625,0,0,0,0,0
3.793,-8.75,0,0,0,0,0
3.794,-8.125,0,0,0,0,0
3.795,-6.875,0,0,0,0,0
3.796,-6.875,0,0,0,0,0
3.797,-7.5,0,0,0,0,0
3.798,-8.75,0,0,0,0,0
3.799,-8.75,0,0,0,0,0
3.8,-8.75,0,0,0,0,0
3.801,-8.75,0,0,0,0,0
3.802,-8.4375,0,0,0,0,0
3.803,-8.125,0,0,0,0,0
3.804,-8.4375,0,0,0,0,0
3.805,-8.125,0,0,0,0,0
3.806,-7.8125,0,0,0,0,0
3.807,-8.125,0,0,0,0,0
3.808,-7.8125,0,0,0,0,0
3.809,-7.5,0,0,0,0,0
3.81,-7.1875,0,0,0,0,0
3.811,-6.875,0,0,0,0,0
3.812,-7.5,0,0,0,0,0
3.813,-7.5,0,0,0,0,0
3.814,-6.875,0,0,0,0,0
3.815,-6.875,0,0,0,0,0
3.816,-7.5,0,0,0,0,0
3.817,-7.5,0,0,0,0,0
3.818,-7.8125,0,0,0,0,0
3.819,-8.125,0,0,0,0,0
3.82,-8.4375,0,0,0,0,0
3.821,-8.75,0,0,0,0,0
3.822,-8.4375,0,0,0,0,0
3.823,-8.75,0,0,0,0,0
3.824,-7.8125,0,0,0,0,0
3.825,-8.125,0,0,0,0,0
3.826,-8.125,0,0,0,0,0
3.827,-8.125,0,0,0,0,0
3.828,-7.1875,0,0,0,0,0
3.829,-7.5,0,0,0,0,0
3.83,-7.8125,0,0,0,0,0
3.831,-8.125,0,0,0,0,0
3.832,-8.4375,0,0,0,0,0
3.833,-8.75,0,0,0,0,0
3.834,-8.75,0,0,0,0,0
3.835,-8.75,0,0,0,0,0
3.836,-8.125,0,0,0,0,0
3.837,-8.125,0,0,0,0,0
3.838,-9.0625,0,0,0,0,0
3.839,-8.75,0,0,0,0,0
3.84,-8.4375,0,0,0,0,0
3.841,-8.125,0,0,0,0,0
3.842,-8.4375,0,0,0,0,0
3.843,-8.125,0,0,0,0,0
3.844,-7.5,0,0,0,0,0
3.845,-8.125,0,0,0,0,0
3.846,-8.75,0,0,0,0,0
3.847,-8.75,0,0,0,0,0
3.848,-8.4375,0,0,0,0,0
3.849,-8.75,0,0,0,0,0
3.85,-9.0625,0,0,0,0,0
3.851,-9.375,0,0,0,0,0
3.852,-9.0625,0,0,0,0,0
3.853,-8.75,0,0,0,0,0
3.854,-7.8125,0,0,0,0,0
3.855,-7.5,0,0,0,0,0
3.856,-7.5,0,0,0,0,0
3.857,-7.5,0,0,0,0,0
3.858,-8.4375,0,0,0,0,0
3.859,-8.125,0,0,0,0,0
3.86,-7.1875,0,0,0,0,0
3.861,-7.5,0,0,0,0,0
3.862,-7.5,0,0,0,0,0
3.863,-6.875,0,0,0,0,0
3.864,-7.1875,0,0,0,0,0
3.865,-7.5,0,0,0,0,0
3.866,-6.875,0,0,0,0,0
3.867,-6.875,0,0,0,0,0
3.868,-6.25,0,0,0,0,0
3.869,-6.875,0,0,0,0,0
3.87,-6.25,0,0,0,0,0
3.871,-6.25,0,0,0,0,0
3.872,-6.5625,0,0,0,0,0
3.873,-5.625,0,0,0,0,0
3.874,-5.3125,0,0,0,0,0
3.875,-5,0,0,0,0,0
3.876,-5,0,0,0,0,0
3.877,-5,0,0,0,0,0
3.878,-6.25,0,0,0,0,0
3.879,-6.25,0,0,0,0,0
3.88,-5.9375,0,0,0,0,0
3.881,-5.625,0,0,0,0,0
3.882,-5.625,0,0,0,0,0
3.883,-6.25,0,0,0,0,0
3.884,-6.5625,0,0,0,0,0
3.885,-6.875,0,0,0,0,0
3.886,-7.5,0,0,0,0,0
3.887,-8.125,0,0,0,0,0
3.888,-7.5,0,0,0,0,0
3.889,-7.5,0,0,0,0,0
3.89,-7.5,0,0,0,0,0
3.891,-7.5,0,0,0,0,0
3.892,-7.1875,0,0,0,0,0
3.893,-6.875,0,0,0,0,0
3.894,-6.5625,0,0,0,0,0
3.895,-6.25,0,0,0,0,0
3.896,-6.5625,0,0,0,0,0
3.897,-6.875,0,0,0,0,0
3.898,-6.5625,0,0,0,0,0
3.899,-6.875,0,0,0,0,0
3.9,-6.875,0,0,0,0,0
3.901,-6.875,0,0,0,0,0
3.902,-6.5625,0,0,0,0,0
3.903,-6.875,0,0,0,0,0
3.904,-7.1875,0,0,0,0,0
3.905,-6.875,0,0,0,0,0
3.906,-6.5625,0,0,0,0,0
3.907,-6.25,0,0,0,0,0
3.908,-6.875,0,0,0,0,0
3.909,-6.875,0,0,0,0,0
3.91,-6.875,0,0,0,0,0
3.911,-6.875,0,0,0,0,0
3.912,-6.875,0,0,0,0,0
3.913,-7.5,0,0,0,0,0
3.914,-8.125,0,0,0,0,0
3.915,-8.75,0,0,0,0,0
3.916,-7.8125,0,0,0,0,0
3.917,-7.5,0,0,0,0,0
3.918,-8.125,0,0,0,0,0
3.919,-8.125,0,0,0,0,0
3.92,-7.5,0,0,0,0,0
3.921,-8.125,0,0,0,0,0
3.922,-8.125,0,0,0,0,0
3.923,-8.125,0,0,0,0,0
3.924,-8.4375,0,0,0,0,0
3.925,-8.125,0,0,0,0,0
3.926,-8.125,0,0,0,0,0
3.927,-8.125,0,0,0,0,0
3.928,-8.125,0,0,0,0,0
3.929,-8.125,0,0,0,0,0
3.93,-8.4375,0,0,0,0,0
3.931,-8.75,0,0,0,0,0
3.932,-9.0625,0,0,0,0,0
3.933,-8.75,0,0,0,0,0
3.934,-8.75,0,0,0,0,0
3.935,-8.75,0,0,0,0,0
3.936,-8.4375,0,0,0,0,0
3.937,-9.375,0,0,0,0,0
3.938,-9.375,0,0,0,0,0
3.939,-9.375,0,0,0,0,0
3.94,-9.375,0,0,0,0,0
3.941,-9.375,0,0,0,0,0
3.942,-9.6875,0,0,0,0,0
3.943,-9.375,0,0,0,0,0
3.944,-9.6875,0,0,0,0,0
3.945,-9.375,0,0,0,0,0
3.946,-9.0625,0,0,0,0,0
3.947,-8.125,0,0,0,0,0
3.948,-9.0625,0,0,0,0,0
3.949,-8.75,0,0,0,0,0
3.95,-9.0625,0,0,0,0,0
3.951,-9.375,0,0,0,0,0
3.952,-9.375,0,0,0,0,0
3.953,-9.375,0,0,0,0,0
3.954,-8.4375,0,0,0,0,0
3.955,-8.125,0,0,0,0,0
3.956,-8.125,0,0,0,0,0
3.957,-8.75,0,0,0,0,0
3.958,-8.75,0,0,0,0,0
3.959,-8.75,0,0,0,0,0
3.96,-8.75,0,0,0,0,0
3.961,-8.75,0,0,0,0,0
3.962,-8.75,0,0,0,0,0
3.963,-8.75,0,0,0,0,0
3.964,-8.4375,0,0,0,0,0
3.965,-8.125,0,0,0,0,0
3.966,-8.75,0,0,0,0,0
3.967,-8.125,0,0,0,0,0
3.968,-8.4375,0,0,0,0,0
3.969,-8.75,0,0,0,0,0
3.97,-9.0625,0,0,0,0,0
3.971,-9.375,0,0,0,0,0
3.972,-9.0625,0,0,0,0,0
3.973,-8.75,0,0,0,0,0
3.974,-8.125,0,0,0,0,0
3.975,-7.5,0,0,0,0,0
3.976,-7.8125,0,0,0,0,0
3.977,-8.125,0,0,0,0,0
3.978,-9.0625,0,0,0,0,0
3.979,-8.75,0,0,0,0,0
3.98,-8.75,0,0,0,0,0
3.981,-8.75,0,0,0,0,0
3.982,-8.4375,0,0,0,0,0
3.983,-8.75,0,0,0,0,0
3.984,-9.0625,0,0,0,0,0
3.985,-9.375,0,0,0,0,0
3.986,-9.0625,0,0,0,0,0
3.987,-8.125,0,0,0,0,0
3.988,-7.5,0,0,0,0,0
3.989,-6.875,0,0,0,0,0
3.99,-6.5625,0,0,0,0,0
3.991,-6.875,0,0,0,0,0
3.992,-7.5,0,0,0,0,0
3.993,-7.5,0,0,0,0,0
3.994,-6.875,0,0,0,0,0
3.995,-6.875,0,0,0,0,0
3.996,-6.25,0,0,0,0,0
3.997,-6.875,0,0,0,0,0
3.998,-7.5,0,0,0,0,0
3.999,-7.5,0,0,0,0,0
4,-7.1875,0,0,0,0,0
4.001,-6.875,0,0,0,0,0
4.002,-7.5,0,0,0,0,0
4.003,-6.875,0,0,0,0,0
4.004,-6.875,0,0,0,0,0
4.005,-7.5,0,0,0,0,0
4.006,-7.5,0,0,0,0,0
4.007,-7.5,0,0,0,0,0
4.008,-7.8125,0,0,0,0,0
4.009,-8.125,0,0,0,0,0
4.01,-8.4375,0,0,0,0,0
4.011,-8.75,0,0,0,0,0
4.012,-8.75,0,0,0,0,0
4.013,-8.75,0,0,0,0,0
4.014,-8.75,0,0,0,0,0
4.015,-8.75,0,0,0,0,0
4.016,-8.4375,0,0,0,0,0
4.017,-8.75,0,0,0,0,0
4.018,-8.4375,0,0,0,0,0
4.019,-8.75,0,0,0,0,0
4.02,-8.4375,0,0,0,0,0
4.021,-8.125,0,0,0,0,0
4.022,-8.125,0,0,0,0,0
4.023,-8.125,0,0,0,0,0
4.024,-9.0625,0,0,0,0,0
4.025,-8.75,0,0,0,0,0
4.026,-8.4375,0,0,0,0,0
4.027,-8.125,0,0,0,0,0
4.028,-7.8125,0,0,0,0,0
4.029,-7.5,0,0,0,0,0
4.03,-7.5,0,0,0,0,0
4.031,-7.5,0,0,0,0,0
4.032,-6.875,0,0,0,0,0
4.033,-6.875,0,0,0,0,0
4.034,-6.5625,0,0,0,0,0
4.035,-6.875,0,0,0,0,0
4.036,-7.1875,0,0,0,0,0
4.037,-8.125,0,0,0,0,0
4.038,-8.75,0,0,0,0,0
4.039,-8.75,0,0,0,0,0
4.04,-8.75,0,0,0,0,0
4.041,-8.75,0,0,0,0,0
4.042,-9.0625,0,0,0,0,0
4.043,-9.375,0,0,0,0,0
4.044,-10,0,0,0,0,0
4.045,-10.625,0,0,0,0,0
4.046,-10,0,0,0,0,0
4.047,-10,0,0,0,0,0
4.048,-9.375,0,0,0,0,0
4.049,-10,0,0,0,0,0
4.05,-9.6875,0,0,0,0,0
4.051,-9.375,0,0,0,0,0
4.052,-9.0625,1,0,0,0,0
4.053,-8.75,0,0,0,0,0
4.054,-9.0625,0,0,0,0,0
4.055,-9.375,0,0,0,0,0
4.056,-9.375,0,0,0,0,0
4.057,-10,0,0,0,0,0
4.058,-10.625,0,0,0,0,0
4.059,-11.25,0,0,0,0,0
4.06,-10.938,0,0,0,0,0
4.061,-10.625,0,0,0,0,0
4.062,-10.625,0,0,0,0,0
4.063,-10.625,0,0,0,0,0
4.064,-11.875,0,0,0,0,0
4.065,-13.125,0,0,0,0,0
4.066,-13.75,0,0,0,0,0
4.067,-13.75,0,0,0,0,0
4.068,-14.375,0,0,0,0,0
4.069,-15.625,0,0,0,0,0
4.07,-17.188,0,0,0,0,0
4.071,-19.375,0,0,0,0,0
4.072,-21.563,0,0,0,0,0
4.073,-23.125,0,0,0,0,0
4.074,-23.438,0,0,0,0,0
4.075,-23.125,0,0,0,0,0
4.076,-24.063,0,0,0,0,0
4.077,-25,0,0,0,0,0
4.078,-26.563,0,0,0,0,0
4.079,-27.5,0,0,0,0,0
4.08,-27.813,0,0,0,0,0
4.081,-28.125,0,0,0,0,0
4.082,-27.5,0,0,0,0,0
4.083,-28.125,0,0,0,0,0
4.084,-29.375,0,0,0,0,0
4.085,-30.625,0,0,0,0,0
4.086,-30.625,0,0,0,0,0
4.087,-30.625,0,0,0,0,0
4.088,-31.875,0,0,0,0,0
4.089,-32.5,0,0,0,0,0
4.09,-34.375,0,0,0,0,0
4.091,-36.25,0,0,0,0,0
4.092,-37.188,0,0,0,0,0
4.093,-37.5,0,0,0,0,0
4.094,-37.5,0,0,0,0,0
4.095,-37.5,0,0,0,0,0
4.096,-38.125,0,0,0,0,0
4.097,-38.75,0,0,0,0,0
4.098,-38.75,0,0,0,0,0
4.099,-38.75,0,0,0,0,0
4.1,-38.438,0,0,0,0,0
4.101,-38.125,0,0,0,0,0
4.102,-38.75,0,0,0,0,0
4.103,-38.75,0,0,0,0,0
4.104,-40.313,0,0,0,0,0
4.105,-42.5,0,0,0,0,0
4.106,-43.438,0,0,0,0,0
4.107,-45,0,1,0,0,0
4.108,-45.313,0,0,0,0,0
4.109,-45,0,0,0,0,0
4.11,-45.313,0,0,0,0,0
4.111,-45,0,0,0,0,0
4.112,-44.375,0,0,0,0,0
4.113,-43.75,0,0,0,0,0
4.114,-41.875,0,0,0,0,0
4.115,-40,0,0,0,0,0
4.116,-38.438,0,0,0,0,0
4.117,-38.125,0,0,0,0,0
4.118,-37.188,0,0,0,0,0
4.119,-36.25,0,0,0,0,0
4.12,-34.375,0,0,0,0,0
4.121,-32.5,0,0,0,0,0
4.122,-30.938,0,0,0,0,0
4.123,-28.75,0,0,0,0,0
4.124,-27.5,0,0,0,0,0
4.125,-25.625,0,0,0,0,0
4.126,-23.438,0,0,0,0,0
4.127,-21.25,0,0,0,0,0
4.128,-18.75,0,0,0,0,0
4.129,-17.5,0,0,0,0,0
4.13,-16.563,0,0,0,0,0
4.131,-15.625,0,0,0,0,0
4.132,-14.375,0,0,0,0,0
4.133,-12.5,0,0,0,0,0
4.134,-10.625,0,0,0,0,0
4.135,-9.375,0,0,0,0,0
4.136,-8.75,0,0,0,0,0
4.137,-8.125,0,0,0,0,0
4.138,-7.5,0,0,0,0,0
4.139,-6.875,0,0,0,0,0
4.14,-5.9375,0,0,0,0,0
4.141,-5,0,0,0,0,0
4.142,-4.375,0,0,0,0,0
4.143,-3.75,0,0,0,0,0
4.144,-3.4375,0,0,0,0,0
4.145,-3.125,0,0,0,0,0
4.146,-3.75,0,0,1,0,0
4.147,-3.125,0,0,0,0,0
4.148,-2.8125,0,0,0,0,0
4.149,-2.5,0,0,0,0,0
4.15,-2.5,0,0,0,0,0
4.151,-2.5,0,0,0,0,0
4.152,-2.5,0,0,0,0,0
4.153,-2.5,0,0,0,0,0
4.154,-1.875,0,0,0,0,0
4.155,-1.875,0,0,0,0,0
4.156,-1.25,0,0,0,0,0
4.157,-1.25,0,0,0,0,0
4.158,-1.875,0,0,0,0,0
4.159,-1.875,0,0,0,0,0
4.16,-1.875,0,0,0,0,0
4.161,-1.25,0,0,0,0,0
4.162,-0.9375,0,0,0,0,0
4.163,-1.25,0,0,0,0,0
4.164,-1.5625,0,0,0,0,0
4.165,-1.875,0,0,0,0,0
4.166,-1.25,0,0,0,0,0
4.167,0,0,0,0,0,0
4.168,-0.3125,0,0,0,0,0
4.169,-0.625,0,0,0,0,0
4.17,0,0,0,0,0,0
4.171,0,0,0,0,0,0
4.172,0,0,0,0,0,0
4.173,0,0,0,0,0,0
4.174,1.25,0,0,0,0,0
4.175,2.5,0,0,0,0,0
4.176,2.1875,0,0,0,0,0
4.177,2.5,0,0,0,0,0
4.178,1.875,0,0,0,0,0
4.179,1.875,0,0,0,0,0
4.18,1.875,0,0,0,0,0
4.181,1.25,0,0,0,0,0
4.182,0.3125,0,0,0,0,0
4.183,-0.625,0,0,0,0,0
4.184,-1.25,0,0,0,0,0
4.185,-1.25,0,0,0,0,0
4.186,-1.5625,0,0,0,0,0
4.187,-1.875,0,0,0,0,0
4.188,-0.9375,0,0,0,0,0
4.189,-0.625,0,0,0,0,0
4.19,-1.25,0,0,0,0,0
4.191,-1.875,0,0,0,0,0
4.192,-0.625,0,0,0,0,0
4.193,0,0,0,0,0,0
4.194,0.3125,0,0,0,0,0
4.195,1.25,0,0,0,0,0
4.196,0.625,0,0,0,0,0
4.197,0.625,0,0,0,0,0
4.198,0.625,0,0,0,0,0
4.199,0.625,0,0,0,0,0
4.2,0.625,0,0,0,0,0
4.201,1.25,0,0,0,0,0
4.202,0.625,0,0,0,0,0
4.203,0.625,0,0,0,0,0
4.204,0.625,0,0,0,0,0
4.205,0.625,0,0,0,0,0
4.206,0.625,0,0,0,0,0
4.207,1.25,0,0,0,0,0
4.208,1.5625,0,0,0,0,0
4.209,1.25,0,0,0,0,0
4.21,0.9375,0,0,0,0,0
4.211,0.625,0,0,0,0,0
4.212,1.25,0,0,0,0,0
4.213,1.25,0,0,0,0,0
4.214,2.1875,0,0,0,0,0
4.215,2.5,0,0,0,0,0
4.216,1.875,0,0,0,0,0
4.217,1.25,0,0,0,0,0
4.218,1.5625,0,0,0,0,0
4.219,1.875,0,0,0,0,0
4.22,1.5625,0,0,0,0,0
4.221,1.25,0,0,0,0,0
4.222,1.5625,0,0,0,0,0
4.223,1.875,0,0,0,0,0
4.224,1.875,0,0,0,0,0
4.225,1.875,0,0,0,0,0
4.226,1.5625,0,0,0,0,0
4.227,1.875,0,0,0,0,0
4.228,1.875,0,0,0,0,0
4.229,2.5,0,0,0,0,0
4.23,2.8125,0,0,0,0,0
4.231,2.5,0,0,0,0,0
4.232,2.8125,0,0,0,0,0
4.233,2.5,0,0,0,0,0
4.234,3.125,0,0,0,0,0
4.235,4.375,0,0,0,0,0
4.236,4.6875,0,0,0,0,0
4.237,4.375,0,0,0,0,0
4.238,4.375,0,0,0,0,0
4.239,4.375,0,0,0,0,0
4.24,4.6875,0,0,0,0,0
4.241,4.375,0,0,0,0,0
4.242,4.0625,0,0,0,0,0
4.243,4.375,0,0,0,0,0
4.244,4.375,0,0,0,0,0
4.245,4.375,0,0,0,0,0
4.246,4.375,0,0,0,0,0
4.247,4.375,0,0,0,0,0
4.248,4.375,0,0,0,0,0
4.249,5,0,0,0,0,0
4.25,5,0,0,0,0,0
4.251,5,0,0,0,0,0
4.252,4.6875,0,0,0,0,0
4.253,4.375,0,0,0,0,0
4.254,4.6875,0,0,0,0,0
4.255,5.625,0,0,0,0,0
4.256,6.5625,0,0,0,0,0
4.257,6.25,0,0,0,0,0
4.258,5.9375,0,0,0,0,0
4.259,5.625,0,0,0,0,0
4.26,6.5625,0,0,0,0,0
4.261,6.875,0,0,0,0,0
4.262,6.875,0,0,0,0,0
4.263,6.875,0,0,0,0,0
4.264,6.5625,0,0,0,0,0
4.265,6.25,0,0,0,0,0
4.266,5.9375,0,0,0,0,0
4.267,6.25,0,0,0,0,0
4.268,6.5625,0,0,0,0,0
4.269,6.875,0,0,0,0,0
4.27,7.1875,0,0,0,0,0
4.271,7.5,0,0,0,0,0
4.272,7.8125,0,0,0,0,0
4.273,8.125,0,0,0,0,0
4.274,8.4375,0,0,0,0,0
4.275,8.75,0,0,0,0,0
4.276,9.375,0,0,0,0,0
4.277,9.375,0,0,0,0,0
4.278,8.75,0,0,0,0,0
4.279,8.75,0,0,0,0,0
4.28,8.75,0,0,0,0,0
4.281,8.125,0,0,0,0,0
4.282,8.75,0,0,0,0,0
4.283,8.75,0,0,0,0,0
4.284,8.75,0,0,0,0,0
4.285,8.75,0,0,0,0,0
4.286,8.125,0,0,0,0,0
4.287,8.125,0,0,0,0,0
4.288,8.4375,0,0,0,0,0
4.289,8.125,0,0,0,0,0
4.29,8.125,0,0,0,0,0
4.291,8.125,0,0,0,0,0
4.292,8.75,0,0,0,0,0
4.293,9.375,0,0,0,0,0
4.294,10,0,0,0,0,0
4.295,11.25,0,0,0,0,0
4.296,11.563,0,0,0,0,0
4.297,11.25,0,0,0,0,0
4.298,11.25,0,0,0,0,0
4.299,11.25,0,0,0,0,0
4.3,11.25,0,0,0,0,0
4.301,11.875,0,0,0,0,0
4.302,12.188,0,0,0,0,0
4.303,11.875,0,0,0,0,0
4.304,11.25,0,0,0,0,0
4.305,10.625,0,0,0,0,0
4.306,11.25,0,0,0,0,0
4.307,11.25,0,0,0,0,0
4.308,12.188,0,0,0,0,0
4.309,11.875,0,0,0,0,0
4.31,12.5,0,0,0,0,0
4.311,12.5,0,0,0,0,0
4.312,12.5,0,0,0,0,0
4.313,12.5,0,0,0,0,0
4.314,13.438,0,0,0,0,0
4.315,13.75,0,0,0,0,0
4.316,14.375,0,0,0,0,0
4.317,14.375,0,0,0,0,0
4.318,14.063,0,0,0,0,0
4.319,13.75,0,0,0,0,0
4.32,15.313,0,0,0,0,0
4.321,16.25,0,0,0,0,0
4.322,15.938,0,0,0,0,0
4.323,16.25,0,0,0,0,0
4.324,15.625,0,0,0,0,0
4.325,15.625,0,0,0,0,0
4.326,16.25,0,0,0,0,0
4.327,17.5,0,0,0,0,0
4.328,17.188,0,0,0,0,0
4.329,17.5,0,0,0,0,0
4.33,17.5,0,0,0,0,0
4.331,17.5,0,0,0,0,0
4.332,18.438,0,0,0,0,0
4.333,18.75,0,0,0,0,0
4.334,18.75,0,0,0,0,0
4.335,19.375,0,0,0,0,0
4.336,19.688,0,0,0,0,0
4.337,20,0,0,0,0,0
4.338,20,0,0,0,0,0
4.339,20,0,0,0,0,0
4.34,19.688,0,0,0,0,0
4.341,20,0,0,0,0,0
4.342,20.313,0,0,0,0,0
4.343,20,0,0,0,0,0
4.344,20.313,0,0,0,0,0
4.345,20,0,0,0,0,0
4.346,20.313,0,0,0,0,0
4.347,21.875,0,0,0,0,0
4.348,21.875,0,0,0,0,0
4.349,21.875,0,0,0,0,0
4.35,21.875,0,0,0,0,0
4.351,21.875,0,0,0,0,0
4.352,22.188,0,0,0,0,0
4.353,23.125,0,0,0,0,0
4.354,23.75,0,0,0,0,0
4.355,23.75,0,0,0,0,0
4.356,23.75,0,0,0,0,0
4.357,23.75,0,0,0,0,0
4.358,24.063,0,0,0,0,0
4.359,23.75,0,0,0,0,0
4.36,24.688,0,0,0,0,0
4.361,24.375,0,0,0,0,0
4.362,24.688,0,0,0,0,0
4.363,24.375,0,0,0,0,0
4.364,24.375,0,0,0,0,0
4.365,25,0,0,0,0,0
4.366,25.938,0,0,0,0,0
4.367,26.875,0,0,0,0,0
4.368,27.188,0,0,0,0,0
4.369,26.875,0,0,0,0,0
4.37,26.875,0,0,0,0,0
4.371,26.875,0,0,0,0,0
4.372,27.5,0,0,0,0,0
4.373,27.5,0,0,0,0,0
4.374,26.875,0,0,0,0,0
4.375,26.875,0,0,0,0,0
4.376,27.188,0,0,0,0,0
4.377,26.875,0,0,0,0,0
4.378,27.188,0,0,0,0,0
4.379,27.5,0,0,0,0,0
4.38,27.813,0,0,0,0,0
4.381,27.5,0,0,0,0,0
4.382,27.5,0,0,0,0,0
4.383,28.125,0,0,0,0,0
4.384,28.438,0,0,0,0,0
4.385,28.75,0,0,0,0,0
4.386,27.813,0,0,0,0,0
4.387,27.5,0,0,0,0,0
4.388,28.438,0,0,0,1,0
4.389,28.125,0,0,0,0,0
4.39,27.813,0,0,0,0,0
4.391,27.5,0,0,0,0,0
4.392,27.813,0,0,0,0,0
4.393,27.5,0,0,0,0,0
4.394,28.125,0,0,0,0,0
4.395,28.75,0,0,0,0,0
4.396,28.75,0,0,0,0,0
4.397,28.125,0,0,0,0,0
4.398,28.125,0,0,0,0,0
4.399,27.5,0,0,0,0,0
4.4,27.5,0,0,0,0,0
4.401,27.5,0,0,0,0,0
4.402,27.5,0,0,0,0,0
4.403,27.5,0,0,0,0,0
4.404,27.188,0,0,0,0,0
4.405,25.625,0,0,0,0,0
4.406,25.938,0,0,0,0,0
4.407,26.25,0,0,0,0,0
4.408,26.25,0,0,0,0,0
4.409,26.25,0,0,0,0,0
4.41,25.313,0,0,0,0,0
4.411,24.375,0,0,0,0,0
4.412,24.063,0,0,0,0,0
4.413,24.375,0,0,0,0,0
4.414,24.063,0,0,0,0,0
4.415,24.375,0,0,0,0,0
4.416,23.438,0,0,0,0,0
4.417,22.5,0,0,0,0,0
4.418,21.875,0,0,0,0,0
4.419,21.875,0,0,0,0,0
4.42,22.188,0,0,0,0,0
4.421,21.875,0,0,0,0,0
4.422,21.875,0,0,0,0,0
4.423,20.625,0,0,0,0,0
4.424,20.625,0,0,0,0,0
4.425,19.375,0,0,0,0,0
4.426,18.75,0,0,0,0,0
4.427,18.75,0,0,0,0,0
4.428,18.438,0,0,0,0,0
4.429,18.125,0,0,0,0,0
4.43,17.5,0,0,0,0,0
4.431,16.875,0,0,0,0,0
4.432,16.875,0,0,0,0,0
4.433,16.875,0,0,0,0,0
4.434,17.188,0,0,0,0,0
4.435,16.875,0,0,0,0,0
4.436,16.25,0,0,0,0,0
4.437,15,0,0,0,0,0
4.438,14.688,0,0,0,0,0
4.439,14.375,0,0,0,0,0
4.44,13.75,0,0,0,0,0
4.441,13.75,0,0,0,0,0
4.442,12.813,0,0,0,0,0
4.443,13.125,0,0,0,0,0
4.444,12.188,0,0,0,0,0
4.445,11.25,0,0,0,0,0
4.446,11.875,0,0,0,0,0
4.447,11.875,0,0,0,0,0
4.448,12.188,0,0,0,0,0
4.449,11.875,0,0,0,0,0
4.45,11.25,0,0,0,0,0
4.451,10,0,0,0,0,0
4.452,9.6875,0,0,0,0,0
4.453,8.75,0,0,0,0,0
4.454,9.0625,0,0,0,0,0
4.455,8.75,0,0,0,0,0
4.456,7.8125,0,0,0,0,0
4.457,7.5,0,0,0,0,0
4.458,6.875,0,0,0,0,0
4.459,6.875,0,0,0,0,0
4.46,6.25,0,0,0,0,0
4.461,6.25,0,0,0,0,0
4.462,6.25,0,0,0,0,0
4.463,6.875,0,0,0,0,0
4.464,5.9375,0,0,0,0,0
4.465,5,0,0,0,0,1
4.466,5,0,0,0,0,0
4.467,4.375,0,0,0,0,0
4.468,5,0,0,0,0,0
4.469,5,0,0,0,0,0
4.47,5,0,0,0,0,0
4.471,5.625,0,0,0,0,0
4.472,5,0,0,0,0,0
4.473,5,0,0,0,0,0
4.474,4.375,0,0,0,0,0
4.475,5,0,0,0,0,0
4.476,5,0,0,0,0,0
4.477,4.375,0,0,0,0,0
4.478,4.0625,0,0,0,0,0
4.479,4.375,0,0,0,0,0
4.48,4.0625,0,0,0,0,0
4.481,3.75,0,0,0,0,0
4.482,4.0625,0,0,0,0,0
4.483,4.375,0,0,0,0,0
4.484,3.4375,0,0,0,0,0
4.485,3.125,0,0,0,0,0
4.486,3.125,0,0,0,0,0
4.487,3.125,0,0,0,0,0
4.488,3.4375,0,0,0,0,0
4.489,3.75,0,0,0,0,0
4.49,3.4375,0,0,0,0,0
4.491,2.5,0,0,0,0,0
4.492,2.5,0,0,0,0,0
4.493,2.5,0,0,0,0,0
4.494,2.5,0,0,0,0,0
4.495,2.5,0,0,0,0,0
4.496,2.1875,0,0,0,0,0
4.497,1.875,0,0,0,0,0
4.498,2.1875,0,0,0,0,0
4.499,2.5,0,0,0,0,0
4.5,1.875,0,0,0,0,0
4.501,2.5,0,0,0,0,0
4.502,2.5,0,0,0,0,0
4.503,1.875,0,0,0,0,0
4.504,2.1875,0,0,0,0,0
4.505,2.5,0,0,0,0,0
4.506,2.5,0,0,0,0,0
4.507,2.5,0,0,0,0,0
4.508,2.5,0,0,0,0,0
4.509,2.5,0,0,0,0,0
4.51,2.5,0,0,0,0,0
4.511,2.5,0,0,0,0,0
4.512,2.5,0,0,0,0,0
4.513,1.875,0,0,0,0,0
4.514,1.875,0,0,0,0,0
4.515,1.875,0,0,0,0,0
4.516,2.1875,0,0,0,0,0
4.517,1.875,0,0,0,0,0
4.518,1.5625,0,0,0,0,0
4.519,1.875,0,0,0,0,0
4.52,1.875,0,0,0,0,0
4.521,2.5,0,0,0,0,0
4.522,2.5,0,0,0,0,0
4.523,2.5,0,0,0,0,0
4.524,2.5,0,0,0,0,0
4.525,2.5,0,0,0,0,0
4.526,1.875,0,0,0,0,0
4.527,2.5,0,0,0,0,0
4.528,2.5,0,0,0,0,0
4.529,2.5,0,0,0,0,0
4.53,2.5,0,0,0,0,0
4.531,2.5,0,0,0,0,0
4.532,2.1875,0,0,0,0,0
4.533,1.875,0,0,0,0,0
4.534,1.875,0,0,0,0,0
4.535,1.875,0,0,0,0,0
4.536,2.8125,0,0,0,0,0
4.537,2.5,0,0,0,0,0
4.538,1.875,0,0,0,0,0
4.539,2.5,0,0,0,0,0
4.54,2.8125,0,0,0,0,0
4.541,3.125,0,0,0,0,0
4.542,2.8125,0,0,0,0,0
4.543,2.5,0,0,0,0,0
4.544,2.1875,0,0,0,0,0
4.545,1.25,0,0,0,0,0
4.546,0.9375,0,0,0,0,0
4.547,1.25,0,0,0,0,0
4.548,1.5625,0,0,0,0,0
4.549,1.875,0,0,0,0,0
4.55,2.1875,0,0,0,0,0
4.551,1.875,0,0,0,0,0
4.552,1.875,0,0,0,0,0
4.553,1.875,0,0,0,0,0
4.554,2.5,0,0,0,0,0
4.555,2.5,0,0,0,0,0
4.556,2.8125,0,0,0,0,0
4.557,3.125,0,0,0,0,0
4.558,2.1875,0,0,0,0,0
4.559,1.875,0,0,0,0,0
4.56,1.5625,0,0,0,0,0
4.561,1.875,0,0,0,0,0
4.562,1.5625,0,0,0,0,0
4.563,1.875,0,0,0,0,0
4.564,1.875,0,0,0,0,0
4.565,2.5,0,0,0,0,0
4.566,1.875,0,0,0,0,0
4.567,1.875,0,0,0,0,0
4.568,2.1875,0,0,0,0,0
4.569,2.5,0,0,0,0,0
4.57,2.5,0,0,0,0,0
4.571,2.5,0,0,0,0,0
4.572,1.5625,0,0,0,0,0
4.573,1.25,0,0,0,0,0
4.574,1.5625,0,0,0,0,0
4.575,1.25,0,0,0,0,0
4.576,1.875,0,0,0,0,0
4.577,1.25,0,0,0,0,0
4.578,1.25,0,0,0,0,0
4.579,1.25,0,0,0,0,0
4.58,2.1875,0,0,0,0,0
4.581,2.5,0,0,0,0,0
4.582,2.8125,0,0,0,0,0
4.583,2.5,0,0,0,0,0
4.584,1.875,0,0,0,0,0
4.585,1.25,0,0,0,0,0
4.586,1.25,0,0,0,0,0
4.587,1.25,0,0,0,0,0
4.588,1.25,0,0,0,0,0
4.589,1.25,0,0,0,0,0
4.59,1.875,0,0,0,0,0
4.591,1.875,0,0,0,0,0
4.592,1.5625,0,0,0,0,0
4.593,1.875,0,0,0,0,0
4.594,1.875,0,0,0,0,0
4.595,2.5,0,0,0,0,0
4.596,2.8125,0,0,0,0,0
4.597,2.5,0,0,0,0,0
4.598,2.5,0,0,0,0,0
4.599,1.875,0,0,0,0,0
4.6,1.875,0,0,0,0,0
4.601,1.25,0,0,0,0,0
4.602,1.5625,0,0,0,0,0
4.603,1.875,0,0,0,0,0
4.604,1.5625,0,0,0,0,0
4.605,1.25,0,0,0,0,0
4.606,0.9375,0,0,0,0,0
4.607,1.875,0,0,0,0,0
4.608,0.9375,0,0,0,0,0
4.609,1.25,0,0,0,0,0
4.61,0.625,0,0,0,0,0
4.611,0.625,0,0,0,0,0
4.612,1.25,0,0,0,0,0
4.613,1.875,0,0,0,0,0
4.614,1.875,0,0,0,0,0
4.615,2.5,0,0,0,0,0
4.616,2.5,0,0,0,0,0
4.617,2.5,0,0,0,0,0
4.618,1.25,0,0,0,0,0
4.619,0.625,0,0,0,0,0
4.62,0.9375,0,0,0,0,0
4.621,0.625,0,0,0,0,0
4.622,1.25,0,0,0,0,0
4.623,1.25,0,0,0,0,0
4.624,0.9375,0,0,0,0,0
4.625,0.625,0,0,0,0,0
4.626,0.625,0,0,0,0,0
4.627,0.625,0,0,0,0,0
4.628,0.9375,0,0,0,0,0
4.629,1.25,0,0,0,0,0
4.63,1.5625,0,0,0,0,0
4.631,1.875,0,0,0,0,0
4.632,1.25,0,0,0,0,0
4.633,1.25,0,0,0,0,0
4.634,0.9375,0,0,0,0,0
4.635,0.625,0,0,0,0,0
4.636,0.625,0,0,0,0,0
4.637,0,0,0,0,0,0
4.638,0.3125,0,0,0,0,0
4.639,0.625,0,0,0,0,0
4.64,0.9375,0,0,0,0,0
4.641,1.25,0,0,0,0,0
4.642,1.25,0,0,0,0,0
4.643,1.25,0,0,0,0,0
4.644,0.9375,0,0,0,0,0
4.645,1.25,0,0,0,0,0
4.646,0.625,0,0,0,0,0
4.647,0.625,0,0,0,0,0
4.648,0.625,0,0,0,0,0
4.649,0,0,0,0,0,0
4.65,0.3125,0,0,0,0,0
4.651,0.625,0,0,0,0,0
4.652,0.3125,0,0,0,0,0
4.653,0,0,0,0,0,0
4.654,1.25,0,0,0,0,0
4.655,1.25,0,0,0,0,0
4.656,0.9375,0,0,0,0,0
4.657,0.625,0,0,0,0,0
4.658,0.625,0,0,0,0,0
4.659,0.625,0,0,0,0,0
4.66,0.9375,0,0,0,0,0
4.661,1.25,0,0,0,0,0
4.662,0.9375,0,0,0,0,0
4.663,0.625,0,0,0,0,0
4.664,0.3125,0,0,0,0,0
4.665,0,0,0,0,0,0
4.666,-0.625,0,0,0,0,0
4.667,0,0,0,0,0,0
4.668,0.3125,0,0,0,0,0
4.669,0.625,0,0,0,0,0
4.67,0,0,0,0,0,0
4.671,0,0,0,0,0,0
4.672,-0.3125,0,0,0,0,0
4.673,-0.625,0,0,0,0,0
4.674,-0.3125,0,0,0,0,0
4.675,0,0,0,0,0,0
4.676,0.625,0,0,0,0,0
4.677,0,0,0,0,0,0
4.678,0.3125,0,0,0,0,0
4.679,0.625,0,0,0,0,0
4.68,0.625,0,0,0,0,0
4.681,0.625,0,0,0,0,0
4.682,1.25,0,0,0,0,0
4.683,1.25,0,0,0,0,0
4.684,0,0,0,0,0,0
4.685,-0.625,0,0,0,0,0
4.686,-1.25,0,0,0,0,0
4.687,-0.625,0,0,0,0,0
4.688,-0.625,0,0,0,0,0
4.689,0,0,0,0,0,0
4.69,-0.625,0,0,0,0,0
4.691,-0.625,0,0,0,0,0
4.692,-0.3125,0,0,0,0,0
4.693,0,0,0,0,0,0
4.694,-0.3125,0,0,0,0,0
4.695,-0.625,0,0,0,0,0
4.696,-0.625,0,0,0,0,0
4.697,-0.625,0,0,0,0,0
4.698,-1.25,0,0,0,0,0
4.699,-1.25,0,0,0,0,0
4.7,-1.5625,0,0,0,0,0
4.701,-1.875,0,0,0,0,0
4.702,-1.25,0,0,0,0,0
4.703,-1.25,0,0,0,0,0
4.704,-1.5625,0,0,0,0,0
4.705,-1.875,0,0,0,0,0
4.706,-2.1875,0,0,0,0,0
4.707,-1.875,0,0,0,0,0
4.708,-1.5625,0,0,0,0,0
4.709,-1.25,0,0,0,0,0
4.71,-1.25,0,0,0,0,0
4.711,-1.25,0,0,0,0,0
4.712,-1.5625,0,0,0,0,0
4.713,-1.875,0,0,0,0,0
4.714,-1.875,0,0,0,0,0
4.715,-1.875,0,0,0,0,0
4.716,-2.1875,0,0,0,0,0
4.717,-2.5,0,0,0,0,0
4.718,-2.8125,0,0,0,0,0
4.719,-2.5,0,0,0,0,0
4.72,-2.5,0,0,0,0,0
4.721,-2.5,0,0,0,0,0
4.722,-2.5,0,0,0,0,0
4.723,-2.5,0,0,0,0,0
4.724,-2.8125,0,0,0,0,0
4.725,-3.125,0,0,0,0,0
4.726,-2.8125,0,0,0,0,0
4.727,-2.5,0,0,0,0,0
4.728,-2.5,0,0,0,0,0
4.729,-1.875,0,0,0,0,0
4.73,-2.1875,0,0,0,0,0
4.731,-1.875,0,0,0,0,0
4.732,-2.5,0,0,0,0,0
4.733,-2.5,0,0,0,0,0
4.734,-2.1875,0,0,0,0,0
4.735,-2.5,0,0,0,0,0
4.736,-2.5,0,0,0,0,0
4.737,-3.125,0,0,0,0,0
4.738,-2.5,0,0,0,0,0
4.739,-3.125,0,0,0,0,0
4.74,-2.8125,0,0,0,0,0
4.741,-3.125,0,0,0,0,0
4.742,-3.125,0,0,0,0,0
4.743,-3.125,0,0,0,0,0
4.744,-3.125,0,0,0,0,0
4.745,-3.125,0,0,0,0,0
4.746,-3.125,0,0,0,0,0
4.747,-3.125,0,0,0,0,0
4.748,-4.0625,0,0,0,0,0
4.749,-3.75,0,0,0,0,0
4.75,-4.0625,0,0,0,0,0
4.751,-3.75,0,0,0,0,0
4.752,-3.75,0,0,0,0,0
4.753,-3.75,0,0,0,0,0
4.754,-3.75,0,0,0,0,0
4.755,-3.75,0,0,0,0,0
4.756,-4.0625,0,0,0,0,0
4.757,-4.375,0,0,0,0,0
4.758,-3.75,0,0,0,0,0
4.759,-3.75,0,0,0,0,0
4.76,-3.75,0,0,0,0,0
4.761,-4.375,0,0,0,0,0
4.762,-4.375,0,0,0,0,0
4.763,-4.375,0,0,0,0,0
4.764,-4.0625,0,0,0,0,0
4.765,-4.375,0,0,0,0,0
4.766,-3.75,0,0,0,0,0
4.767,-4.375,0,0,0,0,0
4.768,-4.0625,0,0,0,0,0
4.769,-3.75,0,0,0,0,0
4.77,-4.6875,0,0,0,0,0
4.771,-5,0,0,0,0,0
4.772,-4.375,0,0,0,0,0
4.773,-4.375,0,0,0,0,0
4.774,-4.375,0,0,0,0,0
4.775,-4.375,0,0,0,0,0
4.776,-5.3125,0,0,0,0,0
4.777,-6.25,0,0,0,0,0
4.778,-6.25,0,0,0,0,0
4.779,-6.25,0,0,0,0,0
4.78,-5.625,0,0,0,0,0
4.781,-5,0,0,0,0,0
4.782,-5.9375,0,0,0,0,0
4.783,-5.625,0,0,0,0,0
4.784,-5.9375,0,0,0,0,0
4.785,-5.625,0,0,0,0,0
4.786,-5.625,0,0,0,0,0
4.787,-6.25,0,0,0,0,0
4.788,-6.25,0,0,0,0,0
4.789,-6.25,0,0,0,0,0
4.79,-5.9375,0,0,0,0,0
4.791,-5.625,0,0,0,0,0
4.792,-5.3125,0,0,0,0,0
4.793,-5,0,0,0,0,0
4.794,-5.3125,0,0,0,0,0
4.795,-5.625,0,0,0,0,0
4.796,-5.625,0,0,0,0,0
4.797,-6.25,0,0,0,0,0
4.798,-7.1875,0,0,0,0,0
4.799,-8.125,0,0,0,0,0
4.8,-7.1875,0,0,0,0,0
4.801,-7.5,0,0,0,0,0
4.802,-6.5625,0,0,0,0,0
4.803,-6.25,0,0,0,0,0
4.804,-7.1875,0,0,0,0,0
4.805,-6.875,0,0,0,0,0
4.806,-7.5,0,0,0,0,0
4.807,-7.5,0,0,0,0,0
4.808,-7.5,0,0,0,0,0
4.809,-6.875,0,0,0,0,0
4.81,-7.1875,0,0,0,0,0
4.811,-6.25,0,0,0,0,0
4.812,-6.875,0,0,0,0,0
4.813,-6.875,0,0,0,0,0
4.814,-7.8125,0,0,0,0,0
4.815,-8.125,0,0,0,0,0
4.816,-7.5,0,0,0,0,0
4.817,-7.5,0,0,0,0,0
4.818,-7.8125,0,0,0,0,0
4.819,-8.75,0,0,0,0,0
4.82,-8.125,0,0,0,0,0
4.821,-8.75,0,0,0,0,0
4.822,-8.75,0,0,0,0,0
4.823,-8.125,0,0,0,0,0
4.824,-8.75,0,0,0,0,0
4.825,-8.75,0,0,0,0,0
4.826,-8.75,0,0,0,0,0
4.827,-8.75,0,0,0,0,0
4.828,-8.4375,0,0,0,0,0
4.829,-8.75,0,0,0,0,0
4.83,-8.75,0,0,0,0,0
4.831,-8.75,0,0,0,0,0
4.832,-9.375,0,0,0,0,0
4.833,-9.375,0,0,0,0,0
4.834,-9.0625,0,0,0,0,0
4.835,-8.75,0,0,0,0,0
4.836,-8.125,0,0,0,0,0
4.837,-8.125,0,0,0,0,0
4.838,-8.125,0,0,0,0,0
4.839,-8.75,0,0,0,0,0
4.84,-8.75,0,0,0,0,0
4.841,-8.75,0,0,0,0,0
4.842,-9.375,0,0,0,0,0
4.843,-9.375,0,0,0,0,0
4.844,-9.375,0,0,0,0,0
4.845,-10,0,0,0,0,0
4.846,-10.938,0,0,0,0,0
4.847,-10.625,0,0,0,0,0
4.848,-10.313,0,0,0,0,0
4.849,-10,0,0,0,0,0
4.85,-9.6875,0,0,0,0,0
4.851,-9.375,0,0,0,0,0
4.852,-10,0,0,0,0,0
4.853,-10,0,0,0,0,0
4.854,-9.6875,0,0,0,0,0
4.855,-10,0,0,0,0,0
4.856,-10,0,0,0,0,0
4.857,-10,0,0,0,0,0
4.858,-10.313,0,0,0,0,0
4.859,-10.625,0,0,0,0,0
4.86,-10.938,0,0,0,0,0
4.861,-10.625,0,0,0,0,0
4.862,-9.6875,0,0,0,0,0
4.863,-9.375,0,0,0,0,0
4.864,-10,0,0,0,0,0
4.865,-10,0,0,0,0,0
4.866,-10,0,0,0,0,0
4.867,-10,0,0,0,0,0
4.868,-10.625,0,0,0,0,0
4.869,-11.25,0,0,0,0,0
4.87,-11.563,0,0,0,0,0
4.871,-12.5,0,0,0,0,0
4.872,-11.563,0,0,0,0,0
4.873,-11.875,0,0,0,0,0
4.874,-12.188,0,0,0,0,0
4.875,-12.5,0,0,0,0,0
4.876,-11.563,0,0,0,0,0
4.877,-11.875,0,0,0,0,0
4.878,-11.875,0,0,0,0,0
4.879,-11.875,0,0,0,0,0
4.88,-11.563,0,0,0,0,0
4.881,-11.25,0,0,0,0,0
4.882,-11.25,0,0,0,0,0
4.883,-11.25,0,0,0,0,0
4.884,-11.25,0,0,0,0,0
4.885,-11.875,0,0,0,0,0
4.886,-12.813,0,0,0,0,0
4.887,-12.5,0,0,0,0,0
4.888,-12.813,0,0,0,0,0
4.889,-13.125,0,0,0,0,0
4.89,-13.438,0,0,0,0,0
4.891,-13.125,0,0,0,0,0
4.892,-12.188,0,0,0,0,0
4.893,-12.5,0,0,0,0,0
4.894,-12.813,0,0,0,0,0
4.895,-12.5,0,0,0,0,0
4.896,-12.188,0,0,0,0,0
4.897,-12.5,0,0,0,0,0
4.898,-12.5,0,0,0,0,0
4.899,-12.5,0,0,0,0,0
4.9,-13.125,0,0,0,0,0
4.901,-13.75,0,0,0,0,0
4.902,-13.125,0,0,0,0,0
4.903,-13.125,0,0,0,0,0
4.904,-13.125,0,0,0,0,0
4.905,-13.125,0,0,0,0,0
4.906,-14.063,0,0,0,0,0
4.907,-13.75,0,0,0,0,0
4.908,-12.813,0,0,0,0,0
4.909,-13.125,0,0,0,0,0
4.91,-13.125,0,0,0,0,0
4.911,-12.5,0,0,0,0,0
4.912,-13.125,0,0,0,0,0
4.913,-13.75,0,0,0,0,0
4.914,-13.75,0,0,0,0,0
4.915,-14.375,0,0,0,0,0
4.916,-13.75,0,0,0,0,0
4.917,-14.375,0,0,0,0,0
4.918,-13.75,0,0,0,0,0
4.919,-13.75,0,0,0,0,0
4.92,-14.375,0,0,0,0,0
4.921,-13.75,0,0,0,0,0
4.922,-13.438,0,0,0,0,0
4.923,-13.125,0,0,0,0,0
4.924,-13.438,0,0,0,0,0
4.925,-13.75,0,0,0,0,0
4.926,-14.375,0,0,0,0,0
4.927,-13.75,0,0,0,0,0
4.928,-13.438,0,0,0,0,0
4.929,-13.125,0,0,0,0,0
4.93,-13.125,0,0,0,0,0
4.931,-13.75,0,0,0,0,0
4.932,-13.75,0,0,0,0,0
4.933,-13.75,0,0,0,0,0
4.934,-14.063,0,0,0,0,0
4.935,-14.375,0,0,0,0,0
4.936,-13.75,0,0,0,0,0
4.937,-13.75,0,0,0,0,0
4.938,-13.75,0,0,0,0,0
4.939,-13.75,0,0,0,0,0
4.94,-13.438,0,0,0,0,0
4.941,-13.125,0,0,0,0,0
4.942,-13.438,0,0,0,0,0
4.943,-13.75,0,0,0,0,0
4.944,-14.063,0,0,0,0,0
4.945,-14.375,0,0,0,0,0
4.946,-14.063,0,0,0,0,0
4.947,-14.375,0,0,0,0,0
4.948,-14.375,0,0,0,0,0
4.949,-14.375,0,0,0,0,0
4.95,-13.75,0,0,0,0,0
4.951,-13.75,0,0,0,0,0
4.952,-14.375,0,0,0,0,0
4.953,-14.375,0,0,0,0,0
4.954,-14.063,0,0,0,0,0
4.955,-13.75,0,0,0,0,0
4.956,-15,0,0,0,0,0
4.957,-15.625,0,0,0,0,0
4.958,-15.625,0,0,0,0,0
4.959,-15.625,0,0,0,0,0
4.96,-15.313,0,0,0,0,0
4.961,-15.625,0,0,0,0,0
4.962,-15.938,0,0,0,0,0
4.963,-16.25,0,0,0,0,0
4.964,-15.625,0,0,0,0,0
4.965,-15.625,0,0,0,0,0
4.966,-15.938,0,0,0,0,0
4.967,-15.625,0,0,0,0,0
4.968,-15.313,0,0,0,0,0
4.969,-16.25,0,0,0,0,0
4.97,-16.875,0,0,0,0,0
4.971,-17.5,0,0,0,0,0
4.972,-18.438,0,0,0,0,0
4.973,-18.75,0,0,0,0,0
4.974,-18.75,0,0,0,0,0
4.975,-18.75,0,0,0,0,0
4.976,-18.75,0,0,0,0,0
4.977,-18.75,0,0,0,0,0
4.978,-18.75,0,0,0,0,0
4.979,-18.75,0,0,0,0,0
4.98,-18.75,0,0,0,0,0
4.981,-18.125,0,0,0,0,0
4.982,-18.75,0,0,0,0,0
4.983,-19.375,0,0,0,0,0
4.984,-19.063,0,0,0,0,0
4.985,-20,0,0,0,0,0
4.986,-19.688,0,0,0,0,0
4.987,-19.375,0,0,0,0,0
4.988,-19.375,0,0,0,0,0
4.989,-19.375,0,0,0,0,0
4.99,-19.375,0,0,0,0,0
4.991,-18.75,0,0,0,0,0
4.992,-19.063,0,0,0,0,0
4.993,-18.75,0,0,0,0,0
4.994,-18.125,0,0,0,0,0
4.995,-16.875,0,0,0,0,0
4.996,-17.5,0,0,0,0,0
4.997,-16.875,0,0,0,0,0
4.998,-17.188,0,0,0,0,0
4.999,-17.5,0,0,0,0,0
5,-17.5,0,0,0,0,0
5.001,-17.5,0,0,0,0,0
5.002,-17.188,0,0,0,0,0
5.003,-17.5,0,0,0,0,0
5.004,-17.813,0,0,0,0,0
5.005,-18.75,0,0,0,0,0
5.006,-18.438,0,0,0,0,0
5.007,-18.125,0,0,0,0,0
5.008,-18.125,0,0,0,0,0
5.009,-18.125,0,0,0,0,0
5.01,-18.75,0,0,0,0,0
5.011,-19.375,0,0,0,0,0
5.012,-19.063,0,0,0,0,0
5.013,-18.75,0,0,0,0,0
5.014,-20,0,0,0,0,0
5.015,-20,0,0,0,0,0
5.016,-19.688,0,0,0,0,0
5.017,-19.375,0,0,0,0,0
5.018,-19.688,0,0,0,0,0
5.019,-20,0,0,0,0,0
5.02,-20,0,0,0,0,0
5.021,-20,0,0,0,0,0
5.022,-20,0,0,0,0,0
5.023,-20,0,0,0,0,0
5.024,-20,0,0,0,0,0
5.025,-20,0,0,0,0,0
5.026,-20.625,0,0,0,0,0
5.027,-20,0,0,0,0,0
5.028,-20,0,0,0,0,0
5.029,-20,0,0,0,0,0
5.03,-20,0,0,0,0,0
5.031,-20.625,0,0,0,0,0
5.032,-20.313,0,0,0,0,0
5.033,-20,0,0,0,0,0
5.034,-20,0,0,0,0,0
5.035,-19.375,0,0,0,0,0
5.036,-19.688,0,0,0,0,0
5.037,-20,0,0,0,0,0
5.038,-19.688,0,0,0,0,0
5.039,-20,0,0,0,0,0
5.04,-20.313,0,0,0,0,0
5.041,-20,0,0,0,0,0
5.042,-20,0,0,0,0,0
5.043,-20.625,0,0,0,0,0
5.044,-20.313,0,0,0,0,0
5.045,-21.25,0,0,0,0,0
5.046,-21.25,0,0,0,0,0
5.047,-20.625,0,0,0,0,0
5.048,-20.313,0,0,0,0,0
5.049,-20,0,0,0,0,0
5.05,-20.625,0,0,0,0,0
5.051,-20,0,0,0,0,0
5.052,-19.688,0,0,0,0,0
5.053,-20,0,0,0,0,0
5.054,-20,0,0,0,0,0
5.055,-20,0,0,0,0,0
5.056,-20,0,0,0,0,0
5.057,-20,0,0,0,0,0
5.058,-20.313,0,0,0,0,0
5.059,-20.625,0,0,0,0,0
5.06,-20.313,0,0,0,0,0
5.061,-20,0,0,0,0,0
5.062,-20,0,0,0,0,0
5.063,-20,0,0,0,0,0
5.064,-20.625,0,0,0,0,0
5.065,-21.875,0,0,0,0,0
5.066,-21.563,0,0,0,0,0
5.067,-21.875,0,0,0,0,0
5.068,-21.563,0,0,0,0,0
5.069,-21.25,0,0,0,0,0
5.07,-20.938,0,0,0,0,0
5.071,-20.625,0,0,0,0,0
5.072,-21.25,0,0,0,0,0
5.073,-20.625,0,0,0,0,0
5.074,-20.313,0,0,0,0,0
5.075,-20,0,0,0,0,0
5.076,-20.625,0,0,0,0,0
5.077,-21.25,0,0,0,0,0
5.078,-21.25,0,0,0,0,0
5.079,-21.25,0,0,0,0,0
5.08,-21.25,0,0,0,0,0
5.081,-21.875,0,0,0,0,0
5.082,-21.563,0,0,0,0,0
5.083,-21.875,0,0,0,0,0
5.084,-21.563,0,0,0,0,0
5.085,-21.875,0,0,0,0,0
5.086,-22.5,0,0,0,0,0
5.087,-22.5,0,0,0,0,0
5.088,-22.5,0,0,0,0,0
5.089,-22.5,0,0,0,0,0
5.09,-22.188,0,0,0,0,0
5.091,-21.875,0,0,0,0,0
5.092,-22.188,0,0,0,0,0
5.093,-22.5,0,0,0,0,0
5.094,-22.188,0,0,0,0,0
5.095,-22.5,0,0,0,0,0
5.096,-22.813,1,0,0,0,0
5.097,-24.375,0,0,0,0,0
5.098,-24.375,0,0,0,0,0
5.099,-24.375,0,0,0,0,0
5.1,-24.063,0,0,0,0,0
5.101,-23.75,0,0,0,0,0
5.102,-23.75,0,0,0,0,0
5.103,-23.75,0,0,0,0,0
5.104,-24.063,0,0,0,0,0
5.105,-25,0,0,0,0,0
5.106,-25.313,0,0,0,0,0
5.107,-25.625,0,0,0,0,0
5.108,-25.625,0,0,0,0,0
5.109,-25.625,0,0,0,0,0
5.11,-26.563,0,0,0,0,0
5.111,-27.5,0,0,0,0,0
5.112,-28.125,0,0,0,0,0
5.113,-28.75,0,0,0,0,0
5.114,-29.688,0,0,0,0,0
5.115,-30,0,0,0,0,0
5.116,-31.563,0,0,0,0,0
5.117,-33.75,0,0,0,0,0
5.118,-35.313,0,0,0,0,0
5.119,-37.5,0,0,0,0,0
5.12,-39.063,0,0,0,0,0
5.121,-40,0,0,0,0,0
5.122,-40.938,0,0,0,0,0
5.123,-41.25,0,0,0,0,0
5.124,-42.188,0,0,0,0,0
5.125,-43.125,0,0,0,0,0
5.126,-43.75,0,0,0,0,0
5.127,-43.75,0,0,0,0,0
5.128,-44.063,0,0,0,0,0
5.129,-44.375,0,0,0,0,0
5.13,-44.375,0,0,0,0,0
5.131,-45.625,0,0,0,0,0
5.132,-45.313,0,0,0,0,0
5.133,-45,0,0,0,0,0
5.134,-45,0,0,0,0,0
5.135,-45,0,0,0,0,0
5.136,-46.25,0,0,0,0,0
5.137,-46.875,0,0,0,0,0
5.138,-48.438,0,0,0,0,0
5.139,-50,0,0,0,0,0
5.14,-50.938,0,0,0,0,0
5.141,-51.25,0,0,0,0,0
5.142,-51.563,0,0,0,0,0
5.143,-51.875,0,0,0,0,0
5.144,-52.5,0,0,0,0,0
5.145,-53.125,0,0,0,0,0
5.146,-52.5,0,0,0,0,0
5.147,-51.875,0,0,0,0,0
5.148,-51.875,0,0,0,0,0
5.149,-51.875,0,0,0,0,0
5.15,-52.5,0,0,0,0,0
5.151,-52.5,0,0,0,0,0
5.152,-53.125,0,0,0,0,0
5.153,-54.375,0,0,0,0,0
5.154,-54.688,0,0,0,0,0
5.155,-55.625,0,0,0,0,0
5.156,-56.563,0,0,0,0,0
5.157,-56.875,0,0,0,0,0
5.158,-57.5,0,1,0,0,0
5.159,-57.5,0,0,0,0,0
5.16,-56.875,0,0,0,0,0
5.161,-56.25,0,0,0,0,0
5.162,-54.688,0,0,0,0,0
5.163,-53.125,0,0,0,0,0
5.164,-51.875,0,0,0,0,0
5.165,-51.875,0,0,0,0,0
5.166,-50.313,0,0,0,0,0
5.167,-48.75,0,0,0,0,0
5.168,-47.188,0,0,0,0,0
5.169,-45.625,0,0,0,0,0
5.17,-44.375,0,0,0,0,0
5.171,-42.5,0,0,0,0,0
5.172,-40.938,0,0,0,0,0
5.173,-38.75,0,0,0,0,0
5.174,-36.25,0,0,0,0,0
5.175,-33.75,0,0,0,0,0
5.176,-31.563,0,0,0,0,0
5.177,-30.625,0,0,0,0,0
5.178,-29.375,0,0,0,0,0
5.179,-28.125,0,0,0,0,0
5.18,-26.563,0,0,0,0,0
5.181,-24.375,0,0,0,0,0
5.182,-22.813,0,0,0,0,0
5.183,-21.875,0,0,0,0,0
5.184,-21.563,0,0,0,0,0
5.185,-21.25,0,0,0,0,0
5.186,-20,0,0,0,0,0
5.187,-18.75,0,0,0,0,0
5.188,-17.813,0,0,0,0,0
5.189,-16.875,0,0,0,0,0
5.19,-16.875,0,0,1,0,0
5.191,-16.875,0,0,0,0,0
5.192,-16.875,0,0,0,0,0
5.193,-16.875,0,0,0,0,0
5.194,-17.188,0,0,0,0,0
5.195,-16.25,0,0,0,0,0
5.196,-16.25,0,0,0,0,0
5.197,-16.25,0,0,0,0,0
5.198,-16.25,0,0,0,0,0
5.199,-16.25,0,0,0,0,0
5.2,-15.625,0,0,0,0,0
5.201,-15,0,0,0,0,0
5.202,-14.688,0,0,0,0,0
5.203,-15,0,0,0,0,0
5.204,-14.375,0,0,0,0,0
5.205,-14.375,0,0,0,0,0
5.206,-15,0,0,0,0,0
5.207,-15,0,0,0,0,0
5.208,-15.313,0,0,0,0,0
5.209,-15,0,0,0,0,0
5.21,-14.688,0,0,0,0,0
5.211,-15,0,0,0,0,0
5.212,-14.375,0,0,0,0,0
5.213,-13.75,0,0,0,0,0
5.214,-13.75,0,0,0,0,0
5.215,-13.125,0,0,0,0,0
5.216,-13.438,0,0,0,0,0
5.217,-13.75,0,0,0,0,0
5.218,-13.125,0,0,0,0,0
5.219,-13.125,0,0,0,0,0
5.22,-12.5,0,0,0,0,0
5.221,-11.875,0,0,0,0,0
5.222,-11.563,0,0,0,0,0
5.223,-11.25,0,0,0,0,0
5.224,-11.875,0,0,0,0,0
5.225,-11.875,0,0,0,0,0
5.226,-12.5,0,0,0,0,0
5.227,-12.5,0,0,0,0,0
5.228,-12.188,0,0,0,0,0
5.229,-12.5,0,0,0,0,0
5.23,-12.188,0,0,0,0,0
5.231,-11.875,0,0,0,0,0
5.232,-12.188,0,0,0,0,0
5.233,-11.875,0,0,0,0,0
5.234,-11.875,0,0,0,0,0
5.235,-11.875,0,0,0,0,0
5.236,-11.25,0,0,0,0,0
5.237,-11.25,0,0,0,0,0
5.238,-11.25,0,0,0,0,0
5.239,-11.25,0,0,0,0,0
5.24,-10.625,0,0,0,0,0
5.241,-10.625,0,0,0,0,0
5.242,-10.625,0,0,0,0,0
5.243,-10,0,0,0,0,0
5.244,-10.938,0,0,0,0,0
5.245,-11.25,0,0,0,0,0
5.246,-10.938,0,0,0,0,0
5.247,-10.625,0,0,0,0,0
5.248,-10.313,0,0,0,0,0
5.249,-9.375,0,0,0,0,0
5.25,-10,0,0,0,0,0
5.251,-10,0,0,0,0,0
5.252,-10.313,0,0,0,0,0
5.253,-10.625,0,0,0,0,0
5.254,-10.625,0,0,0,0,0
5.255,-10,0,0,0,0,0
5.256,-10,0,0,0,0,0
5.257,-10.625,0,0,0,0,0
5.258,-10.938,0,0,0,0,0
5.259,-11.25,0,0,0,0,0
5.26,-10.625,0,0,0,0,0
5.261,-10.625,0,0,0,0,0
5.262,-9.6875,0,0,0,0,0
5.263,-9.375,0,0,0,0,0
5.264,-9.0625,0,0,0,0,0
5.265,-8.75,0,0,0,0,0
5.266,-8.4375,0,0,0,0,0
5.267,-8.125,0,0,0,0,0
5.268,-8.125,0,0,0,0,0
5.269,-8.125,0,0,0,0,0
5.27,-8.4375,0,0,0,0,0
5.271,-8.75,0,0,0,0,0
5.272,-8.4375,0,0,0,0,0
5.273,-8.125,0,0,0,0,0
5.274,-7.1875,0,0,0,0,0
5.275,-5.625,0,0,0,0,0
5.276,-5.9375,0,0,0,0,0
5.277,-5.625,0,0,0,0,0
5.278,-5.9375,0,0,0,0,0
5.279,-6.875,0,0,0,0,0
5.28,-6.5625,0,0,0,0,0
5.281,-6.875,0,0,0,0,0
5.282,-6.875,0,0,0,0,0
5.283,-6.25,0,0,0,0,0
5.284,-6.25,0,0,0,0,0
5.285,-6.875,0,0,0,0,0
5.286,-7.1875,0,0,0,0,0
5.287,-7.5,0,0,0,0,0
5.288,-6.5625,0,0,0,0,0
5.289,-6.25,0,0,0,0,0
5.29,-6.25,0,0,0,0,0
5.291,-5.625,0,0,0,0,0
5.292,-5.3125,0,0,0,0,0
5.293,-5,0,0,0,0,0
5.294,-5,0,0,0,0,0
5.295,-5,0,0,0,0,0
5.296,-5.3125,0,0,0,0,0
5.297,-5,0,0,0,0,0
5.298,-5.3125,0,0,0,0,0
5.299,-5.625,0,0,0,0,0
5.3,-5,0,0,0,0,0
5.301,-4.375,0,0,0,0,0
5.302,-4.375,0,0,0,0,0
5.303,-3.75,0,0,0,0,0
5.304,-3.125,0,0,0,0,0
5.305,-3.75,0,0,0,0,0
5.306,-3.4375,0,0,0,0,0
5.307,-3.125,0,0,0,0,0
5.308,-2.8125,0,0,0,0,0
5.309,-3.125,0,0,0,0,0
5.31,-2.8125,0,0,0,0,0
5.311,-2.5,0,0,0,0,0
5.312,-2.8125,0,0,0,0,0
5.313,-3.125,0,0,0,0,0
5.314,-2.1875,0,0,0,0,0
5.315,-0.625,0,0,0,0,0
5.316,-0.9375,0,0,0,0,0
5.317,-1.25,0,0,0,0,0
5.318,-1.25,0,0,0,0,0
5.319,-1.25,0,0,0,0,0
5.32,-0.625,0,0,0,0,0
5.321,0,0,0,0,0,0
5.322,0,0,0,0,0,0
5.323,0,0,0,0,0,0
5.324,0.625,0,0,0,0,0
5.325,0.625,0,0,0,0,0
5.326,0.625,0,0,0,0,0
5.327,1.25,0,0,0,0,0
5.328,1.875,0,0,0,0,0
5.329,1.875,0,0,0,0,0
5.33,2.5,0,0,0,0,0
5.331,2.5,0,0,0,0,0
5.332,2.1875,0,0,0,0,0
5.333,1.875,0,0,0,0,0
5.334,2.1875,0,0,0,0,0
5.335,3.125,0,0,0,0,0
5.336,3.4375,0,0,0,0,0
5.337,3.125,0,0,0,0,0
5.338,3.4375,0,0,0,0,0
5.339,3.75,0,0,0,0,0
5.34,4.6875,0,0,0,0,0
5.341,5.625,0,0,0,0,0
5.342,4.6875,0,0,0,0,0
5.343,4.375,0,0,0,0,0
5.344,5,0,0,0,0,0
5.345,5,0,0,0,0,0
5.346,5,0,0,0,0,0
5.347,5,0,0,0,0,0
5.348,4.6875,0,0,0,0,0
5.349,5,0,0,0,0,0
5.35,5.625,0,0,0,0,0
5.351,5.625,0,0,0,0,0
5.352,5.9375,0,0,0,0,0
5.353,6.25,0,0,0,0,0
5.354,7.5,0,0,0,0,0
5.355,8.125,0,0,0,0,0
5.356,8.4375,0,0,0,0,0
5.357,7.5,0,0,0,0,0
5.358,7.8125,0,0,0,0,0
5.359,7.5,0,0,0,0,0
5.36,8.4375,0,0,0,0,0
5.361,9.375,0,0,0,0,0
5.362,10.313,0,0,0,0,0
5.363,10.625,0,0,0,0,0
5.364,10.938,0,0,0,0,0
5.365,10.625,0,0,0,0,0
5.366,11.25,0,0,0,0,0
5.367,11.875,0,0,0,0,0
5.368,12.813,0,0,0,0,0
5.369,13.125,0,0,0,0,0
5.37,12.813,0,0,0,0,0
5.371,13.125,0,0,0,0,0
5.372,13.125,0,0,0,0,0
5.373,13.75,0,0,0,0,0
5.374,14.063,0,0,0,0,0
5.375,15,0,0,0,0,0
5.376,14.688,0,0,0,0,0
5.377,15,0,0,0,0,0
5.378,15,0,0,0,0,0
5.379,15,0,0,0,0,0
5.38,15.625,0,0,0,0,0
5.381,15.625,0,0,0,0,0
5.382,15.313,0,0,0,0,0
5.383,15.625,0,0,0,0,0
5.384,15.938,0,0,0,0,0
5.385,16.25,0,0,0,0,0
5.386,16.25,0,0,0,0,0
5.387,16.25,0,0,0,0,0
5.388,16.25,0,0,0,0,0
5.389,16.875,0,0,0,0,0
5.39,17.5,0,0,0,0,0
5.391,17.5,0,0,0,0,0
5.392,18.438,0,0,0,0,0
5.393,18.75,0,0,0,0,0
5.394,18.438,0,0,0,0,0
5.395,19.375,0,0,0,0,0
5.396,19.688,0,0,0,0,0
5.397,20,0,0,0,0,0
5.398,20,0,0,0,0,0
5.399,20,0,0,0,0,0
5.4,19.375,0,0,0,0,0
5.401,19.375,0,0,0,0,0
5.402,20.313,0,0,0,0,0
5.403,20.625,0,0,0,0,0
5.404,20.313,0,0,0,0,0
5.405,20,0,0,0,0,0
5.406,21.25,0,0,0,0,0
5.407,21.875,0,0,0,0,0
5.408,22.5,0,0,0,0,0
5.409,21.875,0,0,0,0,0
5.41,22.188,0,0,0,0,0
5.411,21.875,0,0,0,0,0
5.412,21.875,0,0,0,0,0
5.413,22.5,0,0,0,0,0
5.414,22.813,0,0,0,0,0
5.415,23.125,0,0,0,0,0
5.416,23.75,0,0,0,0,0
5.417,23.75,0,0,0,0,0
5.418,23.75,0,0,0,0,0
5.419,23.75,0,0,0,0,0
5.42,24.688,0,0,0,0,0
5.421,25,0,0,0,0,0
5.422,24.688,0,0,0,0,0
5.423,25,0,0,0,0,0
5.424,25.313,0,0,0,0,0
5.425,25,0,0,0,0,0
5.426,24.688,0,0,0,0,0
5.427,24.375,0,0,0,0,0
5.428,24.688,0,0,0,0,0
5.429,24.375,0,0,0,0,0
5.43,24.063,0,0,0,0,0
5.431,24.375,0,0,0,0,0
5.432,24.063,0,0,0,0,0
5.433,23.75,0,0,0,0,0
5.434,23.75,0,0,0,0,0
5.435,24.375,0,0,0,0,0
5.436,25.313,0,0,0,0,0
5.437,25,0,0,0,0,0
5.438,24.688,0,0,0,0,0
5.439,24.375,0,0,0,1,0
5.44,25.313,0,0,0,0,0
5.441,25.625,0,0,0,0,0
5.442,25.625,0,0,0,0,0
5.443,25.625,0,0,0,0,0
5.444,25.625,0,0,0,0,0
