0,-2.3125,0,0,0,0,0
0.001,-2.3125,0,0,0,0,0
0.002,-2.3125,0,0,0,0,0
0.003,-2.3125,0,0,0,0,0
0.004,-2.1875,0,0,0,0,0
0.005,-2,0,0,0,0,0
0.006,-1.625,0,0,0,0,0
0.007,-1.25,0,0,0,0,0
0.008,-0.6875,0,0,0,0,0
0.009,-0.125,0,0,0,0,0
0.01,-1,0,0,0,0,0
0.011,-1.875,0,0,0,0,0
0.012,-2.3125,0,0,0,0,0
0.013,-2.8125,0,0,0,0,0
0.014,-2.75,0,0,0,0,0
0.015,-2.625,0,0,0,0,0
0.016,-2.75,0,0,0,0,0
0.017,-2.9375,0,0,0,0,0
0.018,-2.5625,0,0,0,0,0
0.019,-2.1875,0,0,0,0,0
0.02,-1.9375,0,0,0,0,0
0.021,-1.6875,0,0,0,0,0
0.022,-1.9375,0,0,0,0,0
0.023,-2.1875,0,0,0,0,0
0.024,-1.5625,0,0,0,0,0
0.025,-0.9375,0,0,0,0,0
0.026,-1,0,0,0,0,0
0.027,-1.0625,0,0,0,0,0
0.028,-1.3125,0,0,0,0,0
0.029,-1.5625,0,0,0,0,0
0.03,-1.625,0,0,0,0,0
0.031,-1.6875,0,0,0,0,0
0.032,-0.6875,0,0,0,0,0
0.033,0.3125,0,0,0,0,0
0.034,1.125,0,0,0,0,0
0.035,1.875,0,0,0,0,0
0.036,1.875,0,0,0,0,0
0.037,1.875,0,0,0,0,0
0.038,1.3125,0,0,0,0,0
0.039,0.625,0,0,0,0,0
0.04,-0.125,0,0,0,0,0
0.041,-0.9375,0,0,0,0,0
0.042,-0.6875,0,0,0,0,0
0.043,-0.4375,0,0,0,0,0
0.044,-0.0625,0,0,0,0,0
0.045,0.3125,0,0,0,0,0
0.046,-0.5,0,0,0,0,0
0.047,-1.375,0,0,0,0,0
0.048,-1.75,0,0,0,0,0
0.049,-2.1875,0,0,0,0,0
0.05,-2.125,0,0,0,0,0
0.051,-2,0,0,0,0,0
0.052,-2,0,0,0,0,0
0.053,-2,0,0,0,0,0
0.054,-1.5625,0,0,0,0,0
0.055,-1.0625,0,0,0,0,0
0.056,-0.625,0,0,0,0,0
0.057,-0.125,0,0,0,0,0
0.058,-0.25,0,0,0,0,0
0.059,-0.3125,0,0,0,0,0
0.06,-0.75,0,0,0,0,0
0.061,-1.25,0,0,0,0,0
0.062,-1.1875,0,0,0,0,0
0.063,-1.0625,0,0,0,0,0
0.064,-1.0625,0,0,0,0,0
0.065,-1.0625,0,0,0,0,0
0.066,-1.125,0,0,0,0,0
0.067,-1.25,0,0,0,0,0
0.068,-1.1875,0,0,0,0,0
0.069,-1.0625,0,0,0,0,0
0.07,-1.0625,0,0,0,0,0
0.071,-1.0625,0,0,0,0,0
0.072,-1.4375,0,0,0,0,0
0.073,-1.875,0,0,0,0,0
0.074,-2.25,0,0,0,0,0
0.075,-2.625,0,0,0,0,0
0.076,-2.875,0,0,0,0,0
0.077,-3.125,0,0,0,0,0
0.078,-3.3125,0,0,0,0,0
0.079,-3.5625,0,0,0,0,0
0.08,-3.1875,0,0,0,0,0
0.081,-2.8125,0,0,0,0,0
0.082,-1.8125,0,0,0,0,0
0.083,-0.75,0,0,0,0,0
0.084,-0.5625,0,0,0,0,0
0.085,-0.3125,0,0,0,0,0
0.086,-0.6875,0,0,0,0,0
0.087,-1.0625,0,0,0,0,0
0.088,-1.1875,0,0,0,0,0
0.089,-1.25,0,0,0,0,0
0.09,-0.9375,0,0,0,0,0
0.091,-0.625,0,0,0,0,0
0.092,-0.625,0,0,0,0,0
0.093,-0.625,0,0,0,0,0
0.094,-0.8125,0,0,0,0,0
0.095,-1.0625,0,0,0,0,0
0.096,-1,0,0,0,0,0
0.097,-0.9375,0,0,0,0,0
0.098,-1.25,0,0,0,0,0
0.099,-1.5625,0,0,0,0,0
0.1,-2.25,0,0,0,0,0
0.101,-2.9375,0,0,0,0,0
0.102,-2.5625,0,0,0,0,0
0.103,-2.1875,0,0,0,0,0
0.104,-1.625,0,0,0,0,0
0.105,-1.0625,0,0,0,0,0
0.106,-2,0,0,0,0,0
0.107,-2.9375,0,0,0,0,0
0.108,-3.75,0,0,0,0,0
0.109,-4.5,0,0,0,0,0
0.11,-3.5,0,0,0,0,0
0.111,-2.5,0,0,0,0,0
0.112,-2.5625,0,0,0,0,0
0.113,-2.625,0,0,0,0,0
0.114,-3.125,0,0,0,0,0
0.115,-3.5625,0,0,0,0,0
0.116,-3.3125,0,0,0,0,0
0.117,-2.9375,0,0,0,0,0
0.118,-2.875,0,0,0,0,0
0.119,-2.8125,0,0,0,0,0
0.12,-3.125,0,0,0,0,0
0.121,-3.4375,0,0,0,0,0
0.122,-3.1875,0,0,0,0,0
0.123,-2.9375,0,0,0,0,0
0.124,-2.875,0,0,0,0,0
0.125,-2.8125,0,0,0,0,0
0.126,-2.6875,0,0,0,0,0
0.127,-2.625,0,0,0,0,0
0.128,-3.1875,0,0,0,0,0
0.129,-3.75,0,0,0,0,0
0.13,-3.4375,0,0,0,0,0
0.131,-3.125,0,0,0,0,0
0.132,-3.3125,0,0,0,0,0
0.133,-3.5625,0,0,0,0,0
0.134,-3.75,0,0,0,0,0
0.135,-3.875,0,0,0,0,0
0.136,-2.9375,0,0,0,0,0
0.137,-2,0,0,0,0,0
0.138,-2.625,0,0,0,0,0
0.139,-3.25,0,0,0,0,0
0.14,-3.125,0,0,0,0,0
0.141,-2.9375,0,0,0,0,0
0.142,-3.25,0,0,0,0,0
0.143,-3.5625,0,0,0,0,0
0.144,-3.6875,0,0,0,0,0
0.145,-3.75,0,0,0,0,0
0.146,-4.4375,0,0,0,0,0
0.147,-5.125,0,0,0,0,0
0.148,-5.375,0,0,0,0,0
0.149,-5.625,0,0,0,0,0
0.15,-4.875,0,0,0,0,0
0.151,-4.0625,0,0,0,0,0
0.152,-4.125,0,0,0,0,0
0.153,-4.1875,0,0,0,0,0
0.154,-4.25,0,0,0,0,0
0.155,-4.375,0,0,0,0,0
0.156,-4.375,0,0,0,0,0
0.157,-4.375,0,0,0,0,0
0.158,-4,0,0,0,0,0
0.159,-3.5625,0,0,0,0,0
0.16,-3.5625,0,0,0,0,0
0.161,-3.5625,0,0,0,0,0
0.162,-3.5625,0,0,0,0,0
0.163,-3.5625,0,0,0,0,0
0.164,-3.9375,0,0,0,0,0
0.165,-4.375,0,0,0,0,0
0.166,-4.25,0,0,0,0,0
0.167,-4.0625,0,0,0,0,0
0.168,-3.75,0,0,0,0,0
0.169,-3.4375,0,0,0,0,0
0.17,-3.375,0,0,0,0,0
0.171,-3.25,0,0,0,0,0
0.172,-3.6875,0,0,0,0,0
0.173,-4.1875,0,0,0,0,0
0.174,-4.3125,0,0,0,0,0
0.175,-4.5,0,0,0,0,0
0.176,-4.4375,0,0,0,0,0
0.177,-4.375,0,0,0,0,0
0.178,-5.1875,0,0,0,0,0
0.179,-6.0625,0,0,0,0,0
0.18,-6.5,0,0,0,0,0
0.181,-7,0,0,0,0,0
0.182,-6.5,0,0,0,0,0
0.183,-5.9375,0,0,0,0,0
0.184,-5.4375,0,0,0,0,0
0.185,-5,0,0,0,0,0
0.186,-5.0625,0,0,0,0,0
0.187,-5.125,0,0,0,0,0
0.188,-5.375,0,0,0,0,0
0.189,-5.625,0,0,0,0,0
0.19,-5.3125,0,0,0,0,0
0.191,-5,0,0,0,0,0
0.192,-4.75,0,0,0,0,0
0.193,-4.5,0,0,0,0,0
0.194,-4.375,0,0,0,0,0
0.195,-4.1875,0,0,0,0,0
0.196,-4.25,0,0,0,0,0
0.197,-4.375,0,0,0,0,0
0.198,-4.625,0,0,0,0,0
0.199,-5,0,0,0,0,0
0.2,-5.4375,0,0,0,0,0
0.201,-5.9375,0,0,0,0,0
0.202,-6.3125,0,0,0,0,0
0.203,-6.6875,0,0,0,0,0
0.204,-6.5,0,0,0,0,0
0.205,-6.25,0,0,0,0,0
0.206,-6.3125,0,0,0,0,0
0.207,-6.375,0,0,0,0,0
0.208,-5.875,0,0,0,0,0
0.209,-5.3125,0,0,0,0,0
0.21,-5.1875,0,0,0,0,0
0.211,-5,0,0,0,0,0
0.212,-5.3125,0,0,0,0,0
0.213,-5.625,0,0,0,0,0
0.214,-5.4375,0,0,0,0,0
0.215,-5.3125,0,0,0,0,0
0.216,-4.9375,0,0,0,1,0
0.217,-4.5,0,0,0,0,0
0.218,-5.375,0,0,0,0,0
0.219,-6.25,0,0,0,0,0
0.22,-6.25,0,0,0,0,0
0.221,-6.25,0,0,0,0,0
0.222,-5.9375,0,0,0,0,0
0.223,-5.625,0,0,0,0,0
0.224,-5.6875,0,0,0,0,0
0.225,-5.75,0,0,0,0,0
0.226,-6.0625,0,0,0,0,0
0.227,-6.375,0,0,0,0,0
0.228,-6.5625,0,0,0,0,0
0.229,-6.6875,0,0,0,0,0
0.23,-6.875,0,0,0,0,0
0.231,-7,0,0,0,0,0
0.232,-7.3125,0,0,0,0,0
0.233,-7.625,0,0,0,0,0
0.234,-7.25,0,0,0,0,0
0.235,-6.875,0,0,0,0,0
0.236,-6.1875,0,0,0,0,0
0.237,-5.4375,0,0,0,0,0
0.238,-4.9375,0,0,0,0,0
0.239,-4.375,0,0,0,0,0
0.24,-5.0625,0,0,0,0,0
0.241,-5.75,0,0,0,0,0
0.242,-5.6875,0,0,0,0,0
0.243,-5.625,0,0,0,0,0
0.244,-5.5,0,0,0,0,0
0.245,-5.4375,0,0,0,0,0
0.246,-5.375,0,0,0,0,0
0.247,-5.3125,0,0,0,0,0
0.248,-4.9375,0,0,0,0,0
0.249,-4.5,0,0,0,0,0
0.25,-4.5,0,0,0,0,0
0.251,-4.5,0,0,0,0,0
0.252,-5.0625,0,0,0,0,0
0.253,-5.625,0,0,0,0,0
0.254,-5.625,0,0,0,0,0
0.255,-5.625,0,0,0,0,0
0.256,-5.1875,0,0,0,0,0
0.257,-4.6875,0,0,0,0,0
0.258,-4.875,0,0,0,0,0
0.259,-5.125,0,0,0,0,0
0.26,-5,0,0,0,0,0
0.261,-4.8125,0,0,0,0,0
0.262,-4.4375,0,0,0,0,0
0.263,-4.0625,0,0,0,0,0
0.264,-4.1875,0,0,0,0,0
0.265,-4.375,0,0,0,0,0
0.266,-4.8125,0,0,0,0,0
0.267,-5.3125,0,0,0,0,0
0.268,-5.75,0,0,0,0,0
0.269,-6.25,0,0,0,0,0
0.27,-5.875,0,0,0,0,0
0.271,-5.4375,0,0,0,0,0
0.272,-5.3125,0,0,0,0,0
0.273,-5.125,0,0,0,0,0
0.274,-4.75,0,0,0,0,0
0.275,-4.375,0,0,0,0,0
0.276,-3.5625,0,0,0,0,0
0.277,-2.8125,0,0,0,0,0
0.278,-3.5,0,0,0,0,0
0.279,-4.1875,0,0,0,0,0
0.28,-4.375,0,0,0,0,0
0.281,-4.5,0,0,0,0,0
0.282,-3.6875,0,0,0,0,0
0.283,-2.8125,0,0,0,0,0
0.284,-2.4375,0,0,0,0,0
0.285,-2,0,0,0,0,0
0.286,-2.125,0,0,0,0,0
0.287,-2.1875,0,0,0,0,0
0.288,-2.625,0,0,0,0,0
0.289,-3.125,0,0,0,0,0
0.29,-3.125,0,0,0,0,0
0.291,-3.125,0,0,0,0,0
0.292,-3.5,0,0,0,0,0
0.293,-3.875,0,0,0,0,0
0.294,-3.9375,0,0,0,0,0
0.295,-4.0625,0,0,0,0,0
0.296,-4.125,0,0,0,0,0
0.297,-4.1875,0,0,0,0,0
0.298,-4.25,0,0,0,0,0
0.299,-4.375,0,0,0,0,0
0.3,-4.4375,0,0,0,0,0
0.301,-4.5,0,0,0,0,0
0.302,-4.4375,0,0,0,0,0
0.303,-4.375,0,0,0,0,0
0.304,-4.25,0,0,0,0,0
0.305,-4.0625,0,0,0,0,0
0.306,-4.25,0,0,0,0,0
0.307,-4.5,0,0,0,0,0
0.308,-4.5,0,0,0,0,0
0.309,-4.5,0,0,0,0,0
0.31,-4.6875,0,0,0,0,0
0.311,-4.8125,0,0,0,0,0
0.312,-4.0625,0,0,0,0,0
0.313,-3.25,0,0,0,0,0
0.314,-3.375,0,0,0,0,0
0.315,-3.4375,0,0,0,0,0
0.316,-3.9375,0,0,0,0,0
0.317,-4.5,0,0,0,0,1
0.318,-5,0,0,0,0,0
0.319,-5.4375,0,0,0,0,0
0.32,-5.5,0,0,0,0,0
0.321,-5.625,0,0,0,0,0
0.322,-5.375,0,0,0,0,0
0.323,-5.125,0,0,0,0,0
0.324,-4.5625,0,0,0,0,0
0.325,-3.875,0,0,0,0,0
0.326,-3.75,0,0,0,0,0
0.327,-3.5625,0,0,0,0,0
0.328,-3.375,0,0,0,0,0
0.329,-3.125,0,0,0,0,0
0.33,-3.75,0,0,0,0,0
0.331,-4.375,0,0,0,0,0
0.332,-4.4375,0,0,0,0,0
0.333,-4.5,0,0,0,0,0
0.334,-4.4375,0,0,0,0,0
0.335,-4.375,0,0,0,0,0
0.336,-4.125,0,0,0,0,0
0.337,-3.875,0,0,0,0,0
0.338,-4.625,0,0,0,0,0
0.339,-5.4375,0,0,0,0,0
0.34,-5.375,0,0,0,0,0
0.341,-5.3125,0,0,0,0,0
0.342,-5.6875,0,0,0,0,0
0.343,-6.0625,0,0,0,0,0
0.344,-5.6875,0,0,0,0,0
0.345,-5.3125,0,0,0,0,0
0.346,-4.4375,0,0,0,0,0
0.347,-3.5625,0,0,0,0,0
0.348,-3.4375,0,0,0,0,0
0.349,-3.25,0,0,0,0,0
0.35,-3.4375,0,0,0,0,0
0.351,-3.5625,0,0,0,0,0
0.352,-3.8125,0,0,0,0,0
0.353,-4.0625,0,0,0,0,0
0.354,-4.125,0,0,0,0,0
0.355,-4.1875,0,0,0,0,0
0.356,-4.25,0,0,0,0,0
0.357,-4.375,0,0,0,0,0
0.358,-4.4375,0,0,0,0,0
0.359,-4.5,0,0,0,0,0
0.36,-4.4375,0,0,0,0,0
0.361,-4.375,0,0,0,0,0
0.362,-4.375,0,0,0,0,0
0.363,-4.375,0,0,0,0,0
0.364,-3.8125,0,0,0,0,0
0.365,-3.25,0,0,0,0,0
0.366,-3.125,0,0,0,0,0
0.367,-2.9375,0,0,0,0,0
0.368,-3.0625,0,0,0,0,0
0.369,-3.25,0,0,0,0,0
0.37,-3.1875,0,0,0,0,0
0.371,-3.125,0,0,0,0,0
0.372,-3.4375,0,0,0,0,0
0.373,-3.75,0,0,0,0,0
0.374,-3.6875,0,0,0,0,0
0.375,-3.5625,0,0,0,0,0
0.376,-3.1875,0,0,0,0,0
0.377,-2.8125,0,0,0,0,0
0.378,-2.875,0,0,0,0,0
0.379,-2.9375,0,0,0,0,0
0.38,-2.8125,0,0,0,0,0
0.381,-2.625,0,0,0,0,0
0.382,-2.375,0,0,0,0,0
0.383,-2,0,0,0,0,0
0.384,-1.625,0,0,0,0,0
0.385,-1.25,0,0,0,0,0
0.386,-1.875,0,0,0,0,0
0.387,-2.5,0,0,0,0,0
0.388,-3.25,0,0,0,0,0
0.389,-4.0625,0,0,0,0,0
0.39,-4.375,0,0,0,0,0
0.391,-4.6875,0,0,0,0,0
0.392,-4.625,0,0,0,0,0
0.393,-4.1875,0,0,0,0,0
0.394,-4.3125,0,0,0,0,0
0.395,-3.75,0,0,0,0,0
0.396,-3.0625,0,0,0,0,0
0.397,-2.8125,0,0,0,0,0
0.398,-2.125,0,0,0,0,0
0.399,-1.375,0,0,0,0,0
0.4,-1.6875,0,0,0,0,0
0.401,-1.875,0,0,0,0,0
0.402,-2,0,0,0,0,0
0.403,-2.1875,0,0,0,0,0
0.404,-3.1875,0,0,0,0,0
0.405,-4.0625,0,0,0,0,0
0.406,-4.3125,0,0,0,0,0
0.407,-4.375,0,0,0,0,0
0.408,-4.8125,0,0,0,0,0
0.409,-4.0625,0,0,0,0,0
0.41,-4.25,0,0,0,0,0
0.411,-4.6875,0,0,0,0,0
0.412,-5,0,0,0,0,0
0.413,-5.75,0,0,0,0,0
0.414,-5.9375,0,0,0,0,0
0.415,-5.3125,0,0,0,0,0
0.416,-4.625,0,0,0,0,0
0.417,-4.0625,0,0,0,0,0
0.418,-4,0,0,0,0,0
0.419,-3.5625,0,0,0,0,0
0.42,-3.625,0,0,0,0,0
0.421,-3.5625,0,0,0,0,0
0.422,-2.875,0,0,0,0,0
0.423,-2,0,0,0,0,0
0.424,-0.625,0,0,0,0,0
0.425,0.3125,0,0,0,0,0
0.426,-1.0625,0,0,0,0,0
0.427,-2.3125,0,0,0,0,0
0.428,-2.25,0,0,0,0,0
0.429,-2.5,0,0,0,0,0
0.43,-2.625,0,0,0,0,0
0.431,-3.125,0,0,0,0,0
0.432,-3.25,0,0,0,0,0
0.433,-3.875,0,0,0,0,0
0.434,-4.4375,0,0,0,0,0
0.435,-4.8125,0,0,0,0,0
0.436,-4.5,0,0,0,0,0
0.437,-4.0625,0,0,0,0,0
0.438,-3.8125,0,0,0,0,0
0.439,-3.4375,0,0,0,0,0
0.44,-3.375,0,0,0,0,0
0.441,-3.4375,0,0,0,0,0
0.442,-3.625,0,0,0,0,0
0.443,-3.75,0,0,0,0,0
0.444,-3.4375,0,0,0,0,0
0.445,-3.25,0,0,0,0,0
0.446,-2.9375,0,0,0,0,0
0.447,-2.8125,0,0,0,0,0
0.448,-3.4375,0,0,0,0,0
0.449,-3.75,0,0,0,0,0
0.45,-2.8125,0,0,0,0,0
0.451,-2.3125,0,0,0,0,0
0.452,-2.4375,0,0,0,0,0
0.453,-2.5,0,0,0,0,0
0.454,-2.75,0,0,0,0,0
0.455,-2.625,0,0,0,0,0
0.456,-2.8125,0,0,0,0,0
0.457,-3.125,0,0,0,0,0
0.458,-3.6875,0,0,0,0,0
0.459,-3.75,0,0,0,0,0
0.46,-4.0625,0,0,0,0,0
0.461,-4.5,0,0,0,0,0
0.462,-4.3125,0,0,0,0,0
0.463,-4.375,0,0,0,0,0
0.464,-4.8125,0,0,0,0,0
0.465,-5.125,0,0,0,0,0
0.466,-5.0625,0,0,0,0,0
0.467,-5,0,0,0,0,0
0.468,-5.125,0,0,0,0,0
0.469,-5.3125,0,0,0,0,0
0.47,-3.375,0,0,0,0,0
0.471,-2,0,0,0,0,0
0.472,-1.5625,0,0,0,0,0
0.473,-0.9375,0,0,0,0,0
0.474,-1.125,0,0,0,0,0
0.475,-1.25,0,0,0,0,0
0.476,-1.75,0,0,0,0,0
0.477,-2,0,0,0,0,0
0.478,-2.3125,0,0,0,0,0
0.479,-2.8125,0,0,0,0,0
0.48,-3.25,0,0,0,0,0
0.481,-3.75,0,0,0,0,0
0.482,-3.9375,0,0,0,0,0
0.483,-4.0625,0,0,0,0,0
0.484,-4.0625,0,0,0,0,0
0.485,-4.1875,0,0,0,0,0
0.486,-4.1875,0,0,0,0,0
0.487,-4.8125,0,0,0,0,0
0.488,-4.875,0,0,0,0,0
0.489,-5.3125,0,0,0,0,0
0.49,-5.375,0,0,0,0,0
0.491,-5.4375,0,0,0,0,0
0.492,-5.75,0,0,0,0,0
0.493,-6.25,0,0,0,0,0
0.494,-6.125,0,0,0,0,0
0.495,-5.4375,0,0,0,0,0
0.496,-4.8125,0,0,0,0,0
0.497,-3.75,0,0,0,0,0
0.498,-2.4375,0,0,0,0,0
0.499,-1.25,0,0,0,0,0
0.5,-1.625,0,0,0,0,0
0.501,-1.25,0,0,0,0,0
0.502,-1.0625,0,0,0,0,0
0.503,-1.6875,0,0,0,0,0
0.504,-1.875,0,0,0,0,0
0.505,-1.6875,0,0,0,0,0
0.506,-2,0,0,0,0,0
0.507,-2,0,0,0,0,0
0.508,-2,0,0,0,0,0
0.509,-2.1875,0,0,0,0,0
0.51,-2.6875,0,0,0,0,0
0.511,-2.9375,0,0,0,0,0
0.512,-2.875,0,0,0,0,0
0.513,-2.625,0,0,0,0,0
0.514,-3.1875,0,0,0,0,0
0.515,-3.4375,0,0,0,0,0
0.516,-3.0625,0,0,0,0,0
0.517,-3.125,0,0,0,0,0
0.518,-2.625,0,0,0,0,0
0.519,-2.625,0,0,0,0,0
0.52,-3.0625,0,0,0,0,0
0.521,-2.9375,0,0,0,0,0
0.522,-2.4375,0,0,0,0,0
0.523,-2.1875,0,0,0,0,0
0.524,-2.0625,0,0,0,0,0
0.525,-2.3125,0,0,0,0,0
0.526,-3.75,0,0,0,0,0
0.527,-4.6875,0,0,0,0,0
0.528,-4.8125,0,0,0,0,0
0.529,-4.6875,0,0,0,0,0
0.53,-4,0,0,0,0,0
0.531,-3.4375,0,0,0,0,0
0.532,-3.25,0,0,0,0,0
0.533,-3.4375,0,0,0,0,0
0.534,-3.8125,0,0,0,0,0
0.535,-4.0625,0,0,0,0,0
0.536,-3.875,0,0,0,0,0
0.537,-5,0,0,0,0,0
0.538,-5.625,0,0,0,0,0
0.539,-5.625,0,0,0,0,0
0.54,-5.9375,0,0,0,0,0
0.541,-6.375,0,0,0,0,0
0.542,-5.375,0,0,0,0,0
0.543,-4.6875,0,0,0,0,0
0.544,-4.3125,0,0,0,0,0
0.545,-4.375,0,0,0,0,0
0.546,-5.1875,0,0,0,0,0
0.547,-5.4375,0,0,0,0,0
0.548,-5.125,0,0,0,0,0
0.549,-5,0,0,0,0,0
0.55,-5.375,0,0,0,0,0
0.551,-5.625,0,0,0,0,0
0.552,-5.25,0,0,0,0,0
0.553,-4.5,0,0,0,0,0
0.554,-3.5,0,0,0,0,0
0.555,-2.3125,0,0,0,0,0
0.556,-1.625,0,0,0,0,0
0.557,-1.5625,0,0,0,0,0
0.558,-1.125,0,0,0,0,0
0.559,-0.9375,0,0,0,0,0
0.56,-1.25,0,0,0,0,0
0.561,-1.5625,0,0,0,0,0
0.562,-1.75,0,0,0,0,0
0.563,-2,0,0,0,0,0
0.564,-1.8125,0,0,0,0,0
0.565,-1.5625,0,0,0,0,0
0.566,-2.625,0,0,0,0,0
0.567,-3.4375,0,0,0,0,0
0.568,-2.9375,0,0,0,0,0
0.569,-2.9375,0,0,0,0,0
0.57,-2.4375,0,0,0,0,0
0.571,-1.25,0,0,0,0,0
0.572,-0.875,0,0,0,0,0
0.573,-0.9375,0,0,0,0,0
0.574,-1.75,0,0,0,0,0
0.575,-2.3125,0,0,0,0,0
0.576,-2.375,0,0,0,0,0
0.577,-2.8125,0,0,0,0,0
0.578,-2.9375,0,0,0,0,0
0.579,-3.25,0,0,0,0,0
0.58,-3.375,0,0,0,0,0
0.581,-3.75,0,0,0,0,0
0.582,-4.1875,0,0,0,0,0
0.583,-4.0625,0,0,0,0,0
0.584,-3.4375,0,0,0,0,0
0.585,-3.125,0,0,0,0,0
0.586,-3.0625,0,0,0,0,0
0.587,-3.125,0,0,0,0,0
0.588,-2.75,0,0,0,0,0
0.589,-2.625,0,0,0,0,0
0.59,-3.125,0,0,0,0,0
0.591,-2.9375,0,0,0,0,0
0.592,-3.25,0,0,0,0,0
0.593,-2.8125,0,0,0,0,0
0.594,-3.625,0,0,0,0,0
0.595,-4.0625,0,0,0,0,0
0.596,-3.75,0,0,0,0,0
0.597,-3.75,0,0,0,0,0
0.598,-4,0,0,0,0,0
0.599,-4.1875,0,0,0,0,0
0.6,-4.5,0,0,0,0,0
0.601,-4.8125,0,0,0,0,0
0.602,-5.3125,0,0,0,0,0
0.603,-6.0625,0,0,0,0,0
0.604,-6.0625,0,0,0,0,0
0.605,-6.0625,0,0,0,0,0
0.606,-6.625,0,0,0,0,0
0.607,-6.875,0,0,0,0,0
0.608,-6.875,0,0,0,0,0
0.609,-5.9375,0,0,0,0,0
0.61,-5.125,0,0,0,0,0
0.611,-4.6875,0,0,0,0,0
0.612,-3.75,0,0,0,0,0
0.613,-3.4375,0,0,0,0,0
0.614,-3.375,0,0,0,0,0
0.615,-3.25,0,0,0,0,0
0.616,-2.75,0,0,0,0,0
0.617,-1.6875,0,0,0,0,0
0.618,-1.625,0,0,0,0,0
0.619,-1.6875,0,0,0,0,0
0.62,-2.0625,0,0,0,0,0
0.621,-2.3125,0,0,0,0,0
0.622,-2.0625,0,0,0,0,0
0.623,-2.5,0,0,0,0,0
0.624,-2.4375,0,0,0,0,0
0.625,-2.1875,0,0,0,0,0
0.626,-2.0625,0,0,0,0,0
0.627,-2.5,0,0,0,0,0
0.628,-2.4375,0,0,0,0,0
0.629,-2.8125,0,0,0,0,0
0.63,-2.625,0,0,0,0,0
0.631,-2.625,0,0,0,0,0
0.632,-2.8125,0,0,0,0,0
0.633,-2.8125,0,0,0,0,0
0.634,-3.25,0,0,0,0,0
0.635,-3.4375,0,0,0,0,0
0.636,-3.125,0,0,0,0,0
0.637,-3.25,0,0,0,0,0
0.638,-3.125,0,0,0,0,0
0.639,-2.625,0,0,0,0,0
0.64,-2.5625,0,0,0,0,0
0.641,-3.125,0,0,0,0,0
0.642,-2.9375,0,0,0,0,0
0.643,-2.8125,0,0,0,0,0
0.644,-2.8125,0,0,0,0,0
0.645,-3.125,0,0,0,0,0
0.646,-3.8125,0,0,0,0,0
0.647,-3.75,0,0,0,0,0
0.648,-4.5,0,0,0,0,0
0.649,-4.8125,0,0,0,0,0
0.65,-4.5,0,0,0,0,0
0.651,-4.6875,0,0,0,0,0
0.652,-5.4375,0,0,0,0,0
0.653,-5.75,0,0,0,0,0
0.654,-5.6875,0,0,0,0,0
0.655,-4.8125,0,0,0,0,0
0.656,-5.5,0,0,0,0,0
0.657,-6.5625,0,0,0,0,0
0.658,-6.875,0,0,0,0,0
0.659,-6.875,0,0,0,0,0
0.66,-6.625,0,0,0,0,0
0.661,-7,0,0,0,0,0
0.662,-6.8125,0,0,0,0,0
0.663,-5.9375,0,0,0,0,0
0.664,-6,0,0,0,0,0
0.665,-7,0,0,0,0,0
0.666,-7.3125,0,0,0,0,0
0.667,-7.1875,0,0,0,0,0
0.668,-5.9375,0,0,0,0,0
0.669,-4.8125,0,0,0,0,0
0.67,-4.75,0,0,0,0,0
0.671,-4.5,0,0,0,0,0
0.672,-3.6875,0,0,0,0,0
0.673,-3.25,0,0,0,0,0
0.674,-3.9375,0,0,0,0,0
0.675,-3.5625,0,0,0,0,0
0.676,-3.1875,0,0,0,0,0
0.677,-2.5,0,0,0,0,0
0.678,-3,0,0,0,0,0
0.679,-2.9375,0,0,0,0,0
0.68,-4.125,0,0,0,0,0
0.681,-5.125,0,0,0,0,0
0.682,-4.8125,0,0,0,0,0
0.683,-4.5,0,0,0,0,0
0.684,-4.125,0,0,0,0,0
0.685,-3.875,0,0,0,0,0
0.686,-4.8125,0,0,0,0,0
0.687,-5.125,0,0,0,0,0
0.688,-4.8125,0,0,0,0,0
0.689,-5,0,0,0,0,0
0.69,-5.125,0,0,0,0,0
0.691,-5,0,0,0,0,0
0.692,-5.125,0,0,0,0,0
0.693,-5.3125,0,0,0,0,0
0.694,-6,0,0,0,0,0
0.695,-6.25,0,0,0,0,0
0.696,-6.125,0,0,0,0,0
0.697,-6.0625,0,0,0,0,0
0.698,-5.375,0,0,0,0,0
0.699,-5.625,0,0,0,0,0
0.7,-6.75,0,0,0,0,0
0.701,-7.3125,0,0,0,0,0
0.702,-7.0625,0,0,0,0,0
0.703,-7.5,0,0,0,0,0
0.704,-7.375,0,0,0,0,0
0.705,-7,0,0,0,0,0
0.706,-7.75,0,0,0,0,0
0.707,-8.875,0,0,0,0,0
0.708,-9.4375,0,0,0,0,0
0.709,-9.8125,0,0,0,0,0
0.71,-9.6875,0,0,0,0,0
0.711,-10.438,0,0,0,0,0
0.712,-10.063,0,0,0,0,0
0.713,-9.5,0,0,0,0,0
0.714,-8.875,0,0,0,0,0
0.715,-8.5625,0,0,0,0,0
0.716,-6.8125,0,0,0,0,0
0.717,-5.4375,0,0,0,0,0
0.718,-5.375,0,0,0,0,0
0.719,-4.8125,0,0,0,0,0
0.72,-4.75,0,0,0,0,0
0.721,-5,0,0,0,0,0
0.722,-4.625,0,0,0,0,0
0.723,-4.6875,0,0,0,0,0
0.724,-4.625,0,0,0,0,0
0.725,-4.1875,0,0,0,0,0
0.726,-4.75,0,0,0,0,0
0.727,-4.8125,0,0,0,0,0
0.728,-4.375,0,0,0,0,0
0.729,-4.5,0,0,0,0,0
0.73,-4.0625,0,0,0,0,0
0.731,-3.125,0,0,0,0,0
0.732,-2.9375,0,0,0,0,0
0.733,-2.8125,0,0,0,0,0
0.734,-3.1875,0,0,0,0,0
0.735,-3.25,0,0,0,0,0
0.736,-3.5625,0,0,0,0,0
0.737,-3.875,0,0,0,0,0
0.738,-3.5625,0,0,0,0,0
0.739,-4.375,0,0,0,0,0
0.74,-4.5,0,0,0,0,0
0.741,-4.6875,0,0,0,0,0
0.742,-4.5,0,0,0,0,0
0.743,-4.1875,0,0,0,0,0
0.744,-3.8125,0,0,0,0,0
0.745,-3.5625,0,0,0,0,0
0.746,-4.4375,0,0,0,0,0
0.747,-5,0,0,0,0,0
0.748,-5.625,0,0,0,0,0
0.749,-5.9375,0,0,0,0,0
0.75,-5.5,0,0,0,0,0
0.751,-5.4375,0,0,0,0,0
0.752,-5.625,0,0,0,0,0
0.753,-5.3125,0,0,0,0,0
0.754,-6,0,0,0,0,0
0.755,-6.25,0,0,0,0,0
0.756,-5.6875,0,0,0,0,0
0.757,-5.9375,0,0,0,0,0
0.758,-6,0,0,0,0,0
0.759,-6.25,0,0,0,0,0
0.76,-5.6875,0,0,0,0,0
0.761,-5.9375,0,0,0,0,0
0.762,-5.375,0,0,0,0,0
0.763,-5,0,0,0,0,0
0.764,-3.9375,0,0,0,0,0
0.765,-2.625,0,0,0,0,0
0.766,-2.625,0,0,0,0,0
0.767,-2.3125,0,0,0,0,0
0.768,-1.9375,0,0,0,0,0
0.769,-1.875,0,0,0,0,0
0.77,-1.5625,0,0,0,0,0
0.771,-1.25,0,0,0,0,0
0.772,-0.6875,0,0,0,0,0
0.773,-1.0625,0,0,0,0,0
0.774,-1.625,0,0,0,0,0
0.775,-1.6875,0,0,0,0,0
0.776,-1.625,0,0,0,0,0
0.777,-1.5625,0,0,0,0,0
0.778,-2.3125,0,0,0,0,0
0.779,-2.8125,0,0,0,0,0
0.78,-2.625,0,0,0,0,0
0.781,-2.8125,0,0,0,0,0
0.782,-2.875,0,0,0,0,0
0.783,-3.125,0,0,0,0,0
0.784,-2.375,0,0,0,0,0
0.785,-2.3125,0,0,0,0,0
0.786,-3.0625,0,0,0,0,0
0.787,-3.125,0,0,0,0,0
0.788,-3.375,0,0,0,0,0
0.789,-3.75,0,0,0,0,0
0.79,-3.4375,0,0,0,0,0
0.791,-3.4375,0,0,0,0,0
0.792,-3.125,0,0,0,0,0
0.793,-2.625,0,0,0,0,0
0.794,-2.9375,0,0,0,0,0
0.795,-2.5,0,0,0,0,0
0.796,-2.5,0,0,0,0,0
0.797,-2.1875,0,0,0,0,0
0.798,-2.75,0,0,0,0,0
0.799,-3.4375,0,0,0,0,0
0.8,-3.5,0,0,0,0,0
0.801,-4.0625,0,0,0,0,0
0.802,-4.375,0,0,0,0,0
0.803,-4.5,0,0,0,0,0
0.804,-4.4375,0,0,0,0,0
0.805,-4.5,0,0,0,0,0
0.806,-4.8125,0,0,0,0,0
0.807,-5,0,0,0,0,0
0.808,-4.875,0,0,0,0,0
0.809,-4.8125,0,0,0,0,0
0.81,-5.0625,0,0,0,0,0
0.811,-4.6875,0,0,0,0,0
0.812,-4.1875,0,0,0,0,0
0.813,-4.0625,0,0,0,0,0
0.814,-4.1875,0,0,0,0,0
0.815,-4.0625,0,0,0,0,0
0.816,-4.1875,0,0,0,0,0
0.817,-4.0625,0,0,0,0,0
0.818,-3.75,0,0,0,0,0
0.819,-3.4375,0,0,0,0,0
0.82,-2.4375,0,0,0,0,0
0.821,-1.6875,0,0,0,0,0
0.822,-0.25,0,0,0,0,0
0.823,0.625,0,0,0,0,0
0.824,1.125,0,0,0,0,0
0.825,0.9375,0,0,0,0,0
0.826,0.1875,0,0,0,0,0
0.827,-0.625,0,0,0,0,0
0.828,-0.9375,0,0,0,0,0
0.829,-0.75,0,0,0,0,0
0.83,-0.3125,0,0,0,0,0
0.831,0,0,0,0,0,0
0.832,-0.5625,0,0,0,0,0
0.833,-1.25,0,0,0,0,0
0.834,-2.5625,0,0,0,0,0
0.835,-3.25,0,0,0,0,0
0.836,-3.125,0,0,0,0,0
0.837,-2.9375,0,0,0,0,0
0.838,-3.1875,0,0,0,0,0
0.839,-3.5625,0,0,0,0,0
0.84,-4,0,0,0,0,0
0.841,-4.6875,0,0,0,0,0
0.842,-4.5,0,0,0,0,0
0.843,-4.5,0,0,0,0,0
0.844,-4.0625,0,0,0,0,0
0.845,-3.5625,0,0,0,0,0
0.846,-3.25,1,0,0,0,0
0.847,-3.75,0,0,0,0,0
0.848,-3.9375,0,0,0,0,0
0.849,-3.875,0,0,0,0,0
0.85,-4.25,0,0,0,0,0
0.851,-5.4375,0,0,0,0,0
0.852,-4.8125,0,0,0,0,0
0.853,-5,0,0,0,0,0
0.854,-5.9375,0,0,0,0,0
0.855,-5.9375,0,0,0,0,0
0.856,-6.1875,0,0,0,0,0
0.857,-6.375,0,0,0,0,0
0.858,-7.5,0,0,0,0,0
0.859,-8.75,0,0,0,0,0
0.86,-9.4375,0,0,0,0,0
0.861,-10.438,0,0,0,0,0
0.862,-10.938,0,0,0,0,0
0.863,-11.375,0,0,0,0,0
0.864,-11.875,0,0,0,0,0
0.865,-12.5,0,0,0,0,0
0.866,-13.938,0,0,0,0,0
0.867,-15.938,0,0,0,0,0
0.868,-17.25,0,0,0,0,0
0.869,-18.563,0,0,0,0,0
0.87,-20.125,0,0,0,0,0
0.871,-22.313,0,0,0,0,0
0.872,-24.063,0,0,0,0,0
0.873,-26.063,0,0,0,0,0
0.874,-27.688,0,0,0,0,0
0.875,-29.813,0,0,0,0,0
0.876,-31.188,0,0,0,0,0
0.877,-32.188,0,0,0,0,0
0.878,-33.438,0,0,0,0,0
0.879,-35.75,0,0,0,0,0
0.88,-39.188,0,0,0,0,0
0.881,-42.188,0,0,0,0,0
0.882,-44,0,0,0,0,0
0.883,-46.25,0,0,0,0,0
0.884,-46.625,0,0,0,0,0
0.885,-46.688,0,0,0,0,0
0.886,-47.625,0,0,0,0,0
0.887,-48.125,0,0,0,0,0
0.888,-49.5,0,1,0,0,0
0.889,-50.438,0,0,0,0,0
0.89,-50.438,0,0,0,0,0
0.891,-50.313,0,0,0,0,0
0.892,-49.5,0,0,0,0,0
0.893,-48.438,0,0,0,0,0
0.894,-47.688,0,0,0,0,0
0.895,-45.75,0,0,0,0,0
0.896,-42.938,0,0,0,0,0
0.897,-40,0,0,0,0,0
0.898,-37.875,0,0,0,0,0
0.899,-35.938,0,0,0,0,0
0.9,-34.188,0,0,0,0,0
0.901,-32.938,0,0,0,0,0
0.902,-30.375,0,0,0,0,0
0.903,-26.688,0,0,0,0,0
0.904,-23.063,0,0,0,0,0
0.905,-19.688,0,0,0,0,0
0.906,-15.688,0,0,0,0,0
0.907,-12.313,0,0,0,0,0
0.908,-10.438,0,0,0,0,0
0.909,-8.4375,0,0,0,0,0
0.91,-6.3125,0,0,0,0,0
0.911,-4.8125,0,0,0,0,0
0.912,-4.5,0,0,0,0,0
0.913,-4.375,0,0,0,0,0
0.914,-3.875,0,0,0,0,0
0.915,-2.9375,0,0,0,0,0
0.916,-2.4375,0,0,0,0,0
0.917,-2.8125,0,0,0,0,0
0.918,-3.125,0,0,0,0,0
0.919,-3.25,0,0,0,0,0
0.92,-3.125,0,0,1,0,0
0.921,-2.5,0,0,0,0,0
0.922,-1.8125,0,0,0,0,0
0.923,-1.875,0,0,0,0,0
0.924,-2.5,0,0,0,0,0
0.925,-2.9375,0,0,0,0,0
0.926,-3.625,0,0,0,0,0
0.927,-3.5625,0,0,0,0,0
0.928,-4.25,0,0,0,0,0
0.929,-4.375,0,0,0,0,0
0.93,-4.0625,0,0,0,0,0
0.931,-3.25,0,0,0,0,0
0.932,-2.625,0,0,0,0,0
0.933,-2.8125,0,0,0,0,0
0.934,-1.875,0,0,0,0,0
0.935,-0.4375,0,0,0,0,0
0.936,-0.1875,0,0,0,0,0
0.937,-0.125,0,0,0,0,0
0.938,-0.9375,0,0,0,0,0
0.939,-2,0,0,0,0,0
0.94,-2.1875,0,0,0,0,0
0.941,-2.625,0,0,0,0,0
0.942,-1.625,0,0,0,0,0
0.943,-0.75,0,0,0,0,0
0.944,-0.5625,0,0,0,0,0
0.945,-0.75,0,0,0,0,0
0.946,-1.4375,0,0,0,0,0
0.947,-1.875,0,0,0,0,0
0.948,-2.625,0,0,0,0,0
0.949,-2.625,0,0,0,0,0
0.95,-2.3125,0,0,0,0,0
0.951,-2.1875,0,0,0,0,0
0.952,-1.5625,0,0,0,0,0
0.953,-1.0625,0,0,0,0,0
0.954,-1.125,0,0,0,0,0
0.955,-0.75,0,0,0,0,0
0.956,-0.75,0,0,0,0,0
0.957,-0.625,0,0,0,0,0
0.958,-1.0625,0,0,0,0,0
0.959,-1.0625,0,0,0,0,0
0.96,-1.125,0,0,0,0,0
0.961,-1.25,0,0,0,0,0
0.962,-1,0,0,0,0,0
0.963,-1.5625,0,0,0,0,0
0.964,-2.375,0,0,0,0,0
0.965,-2.9375,0,0,0,0,0
0.966,-2.625,0,0,0,0,0
0.967,-2,0,0,0,0,0
0.968,-1.875,0,0,0,0,0
0.969,-2,0,0,0,0,0
0.97,-2.5,0,0,0,0,0
0.971,-2.3125,0,0,0,0,0
0.972,-2.5625,0,0,0,0,0
0.973,-2.5,0,0,0,0,0
0.974,-2.5625,0,0,0,0,0
0.975,-2.5,0,0,0,0,0
0.976,-2.1875,0,0,0,0,0
0.977,-1.875,0,0,0,0,0
0.978,-1.3125,0,0,0,0,0
0.979,-0.3125,0,0,0,0,0
0.98,0.0625,0,0,0,0,0
0.981,0.1875,0,0,0,0,0
0.982,0.875,0,0,0,0,0
0.983,1.25,0,0,0,0,0
0.984,1.5,0,0,0,0,0
0.985,1.75,0,0,0,0,0
0.986,1.0625,0,0,0,0,0
0.987,0.625,0,0,0,0,0
0.988,-0.125,0,0,0,0,0
0.989,-0.75,0,0,0,0,0
0.99,-0.875,0,0,0,0,0
0.991,-1.0625,0,0,0,0,0
0.992,-1.125,0,0,0,0,0
0.993,-1.25,0,0,0,0,0
0.994,-1.6875,0,0,0,0,0
0.995,-1.875,0,0,0,0,0
0.996,-2.0625,0,0,0,0,0
0.997,-2.1875,0,0,0,0,0
0.998,-2.3125,0,0,0,0,0
0.999,-2.5,0,0,0,0,0
1,-2.0625,0,0,0,0,0
1.001,-2.1875,0,0,0,0,0
1.002,-2.25,0,0,0,0,0
1.003,-2.3125,0,0,0,0,0
1.004,-2.3125,0,0,0,0,0
1.005,-2.3125,0,0,0,0,0
1.006,-1.875,0,0,0,0,0
1.007,-1.875,0,0,0,0,0
1.008,-1.625,0,0,0,0,0
1.009,-1.5625,0,0,0,0,0
1.01,-0.3125,0,0,0,0,0
1.011,0.3125,0,0,0,0,0
1.012,-0.125,0,0,0,0,0
1.013,0.3125,0,0,0,0,0
1.014,-0.375,0,0,0,0,0
1.015,-0.4375,0,0,0,0,0
1.016,-0.5,0,0,0,0,0
1.017,-0.75,0,0,0,0,0
1.018,-1.4375,0,0,0,0,0
1.019,-1.6875,0,0,0,0,0
1.02,-1.0625,0,0,0,0,0
1.021,-1.0625,0,0,0,0,0
1.022,-1.6875,0,0,0,0,0
1.023,-2.1875,0,0,0,0,0
1.024,-1.6875,0,0,0,0,0
1.025,-1.6875,0,0,0,0,0
1.026,-1.375,0,0,0,0,0
1.027,-1.0625,0,0,0,0,0
1.028,-0.875,0,0,0,0,0
1.029,-0.625,0,0,0,0,0
1.03,-1.375,0,0,0,0,0
1.031,-1.375,0,0,0,0,0
1.032,-1,0,0,0,0,0
1.033,-1.375,0,0,0,0,0
1.034,-1.0625,0,0,0,0,0
1.035,-0.4375,0,0,0,0,0
1.036,0.125,0,0,0,0,0
1.037,0.5,0,0,0,0,0
1.038,-0.3125,0,0,0,0,0
1.039,-0.75,0,0,0,0,0
1.04,-0.9375,0,0,0,0,0
1.041,-1.5625,0,0,0,0,0
1.042,-1.5,0,0,0,0,0
1.043,-1.875,0,0,0,0,0
1.044,-2.1875,0,0,0,0,0
1.045,-2,0,0,0,0,0
1.046,-2.0625,0,0,0,0,0
1.047,-2,0,0,0,0,0
1.048,-1.875,0,0,0,0,0
1.049,-1.375,0,0,0,0,0
1.05,-1.5,0,0,0,0,0
1.051,0.1875,0,0,0,0,0
1.052,0.5,0,0,0,0,0
1.053,-0.125,0,0,0,0,0
1.054,-0.25,0,0,0,0,0
1.055,-0.4375,0,0,0,0,0
1.056,-1,0,0,0,0,0
1.057,-0.625,0,0,0,0,0
1.058,-0.9375,0,0,0,0,0
1.059,-1.375,0,0,0,0,0
1.06,-1.9375,0,0,0,0,0
1.061,-2,0,0,0,0,0
1.062,-1.625,0,0,0,0,0
1.063,-1.5625,0,0,0,0,0
1.064,-1.375,0,0,0,0,0
1.065,-1.375,0,0,0,0,0
1.066,-1.0625,0,0,0,0,0
1.067,-0.9375,0,0,0,0,0
1.068,-1.375,0,0,0,0,0
1.069,-1.6875,0,0,0,0,0
1.07,-1.75,0,0,0,0,0
1.071,-1.875,0,0,0,0,0
1.072,-2.25,0,0,0,0,0
1.073,-2.3125,0,0,0,0,0
1.074,-1.625,0,0,0,0,0
1.075,-1.0625,0,0,0,0,0
1.076,0.125,0,0,0,0,0
1.077,1.25,0,0,0,0,0
1.078,0.875,0,0,0,0,0
1.079,0.625,0,0,0,0,0
1.08,0.6875,0,0,0,0,0
1.081,0,0,0,0,0,0
1.082,-0.4375,0,0,0,0,0
1.083,-1.5625,0,0,0,0,0
1.084,-1.125,0,0,0,0,0
1.085,-0.625,0,0,0,0,0
1.086,-0.75,0,0,0,0,0
1.087,-0.4375,0,0,0,0,0
1.088,-1,0,0,0,0,0
1.089,-0.75,0,0,0,0,0
1.09,-1.0625,0,0,0,0,0
1.091,-0.9375,0,0,0,0,0
1.092,-1.4375,0,0,0,0,0
1.093,-2,0,0,0,0,0
1.094,-2,0,0,0,0,0
1.095,-1.5625,0,0,0,0,0
1.096,-1.4375,0,0,0,0,0
1.097,-1.375,0,0,0,0,0
1.098,-2,0,0,0,0,0
1.099,-1.6875,0,0,0,0,0
1.1,-1.75,0,0,0,0,0
1.101,-1.5625,0,0,0,0,0
1.102,-1.0625,0,0,0,0,0
1.103,-0.9375,0,0,0,0,0
1.104,-0.9375,0,0,0,0,0
1.105,-1.25,0,0,0,0,0
1.106,-2,0,0,0,0,0
1.107,-2.3125,0,0,0,0,0
1.108,-2.0625,0,0,0,0,0
1.109,-2,0,0,0,0,0
1.11,-2.375,0,0,0,0,0
1.111,-2,0,0,0,0,0
1.112,-1.8125,0,0,0,0,0
1.113,-1.875,0,0,0,0,0
1.114,-2.0625,0,0,0,0,0
1.115,-2.625,0,0,0,0,0
1.116,-2.8125,0,0,0,0,0
1.117,-2.625,0,0,0,0,0
1.118,-2.625,0,0,0,0,0
1.119,-2.3125,0,0,0,0,0
1.12,-2.125,0,0,0,0,0
1.121,-2.5,0,0,0,0,0
1.122,-2.3125,0,0,0,0,0
1.123,-2.3125,0,0,0,0,0
1.124,-2.1875,0,0,0,0,0
1.125,-2.3125,0,0,0,0,0
1.126,-2.625,0,0,0,0,0
1.127,-2.625,0,0,0,0,0
1.128,-2.6875,0,0,0,0,0
1.129,-2.5,0,0,0,0,0
1.13,-2.375,0,0,0,0,0
1.131,-1.875,0,0,0,0,0
1.132,-1.5,0,0,0,0,0
1.133,-1.6875,0,0,0,0,0
1.134,-2.3125,0,0,0,0,0
1.135,-2.8125,0,0,0,0,0
1.136,-2.5625,0,0,0,0,0
1.137,-2.3125,0,0,0,0,0
1.138,-2.1875,0,0,0,0,0
1.139,-2.3125,0,0,0,0,0
1.14,-2.125,0,0,0,0,0
1.141,-2.3125,0,0,0,0,0
1.142,-1.875,0,0,0,0,0
1.143,-1.875,0,0,0,0,0
1.144,-2.25,0,0,0,0,0
1.145,-1.6875,0,0,0,0,0
1.146,-2.25,0,0,0,0,0
1.147,-3.125,0,0,0,0,0
1.148,-2.875,0,0,0,0,0
1.149,-2.9375,0,0,0,0,0
1.15,-2.5625,0,0,0,0,0
1.151,-2.625,0,0,0,0,0
1.152,-2.8125,0,0,0,0,0
1.153,-2.625,0,0,0,0,0
1.154,-2.5,0,0,0,0,0
1.155,-2.1875,0,0,0,0,0
1.156,-2.375,0,0,0,0,0
1.157,-2.3125,0,0,0,0,0
1.158,-2.75,0,0,0,0,0
1.159,-2.9375,0,0,0,0,0
1.16,-3.125,0,0,0,0,0
1.161,-3.4375,0,0,0,0,0
1.162,-3,0,0,0,0,0
1.163,-2.625,0,0,0,0,0
1.164,-2.25,0,0,0,0,0
1.165,-2,0,0,0,0,0
1.166,-2.25,0,0,0,0,0
1.167,-2.625,0,0,0,0,0
1.168,-2.625,0,0,0,0,0
1.169,-2.8125,0,0,0,0,0
1.17,-3.0625,0,0,0,0,0
1.171,-2.9375,0,0,0,0,0
1.172,-2.6875,0,0,0,0,0
1.173,-2.9375,0,0,0,0,0
1.174,-3.5625,0,0,0,0,0
1.175,-4.1875,0,0,0,0,0
1.176,-3.625,0,0,0,0,0
1.177,-3.75,0,0,0,0,0
1.178,-3.875,0,0,0,0,0
1.179,-3.75,0,0,0,0,0
1.18,-3.5625,0,0,0,0,0
1.181,-4.0625,0,0,0,0,0
1.182,-3.5625,0,0,0,0,0
1.183,-3.25,0,0,0,0,0
1.184,-3,0,0,0,0,0
1.185,-3.125,0,0,0,0,0
1.186,-3.3125,0,0,0,0,0
1.187,-3.875,0,0,0,0,0
1.188,-4.3125,0,0,0,0,0
1.189,-4.5,0,0,0,0,0
1.19,-5,0,0,0,0,0
1.191,-4.8125,0,0,0,0,0
1.192,-4.8125,0,0,0,0,0
1.193,-5.125,0,0,0,0,0
1.194,-5.6875,0,0,0,0,0
1.195,-5.4375,0,0,0,0,0
1.196,-4.9375,0,0,0,0,0
1.197,-5,0,0,0,0,0
1.198,-5.125,0,0,0,0,0
1.199,-5.3125,0,0,0,0,0
1.2,-6,0,0,0,0,0
1.201,-7.1875,0,0,0,0,0
1.202,-7.5,0,0,0,0,0
1.203,-7.5,0,0,0,0,0
1.204,-7.25,0,0,0,0,0
1.205,-6.6875,0,0,0,0,0
1.206,-6.875,0,0,0,0,0
1.207,-6.25,0,0,0,0,0
1.208,-5.6875,0,0,0,0,0
1.209,-5.625,0,0,0,0,0
1.21,-5.5,0,0,0,0,0
1.211,-5.4375,0,0,0,0,0
1.212,-5,0,0,0,0,0
1.213,-4.6875,0,0,0,0,0
1.214,-4.1875,0,0,0,0,0
1.215,-3.5625,0,0,0,0,0
1.216,-3.875,0,0,0,0,0
1.217,-3.75,0,0,0,0,0
1.218,-3.9375,0,0,0,0,0
1.219,-4.8125,0,0,0,0,0
1.22,-4.75,0,0,0,0,0
1.221,-4.375,0,0,0,0,0
1.222,-4.3125,0,0,0,0,0
1.223,-4.5,0,0,0,0,0
1.224,-3.875,0,0,0,0,0
1.225,-3.875,0,0,0,0,0
1.226,-3.9375,0,0,0,0,0
1.227,-4.1875,0,0,0,0,0
1.228,-4.4375,0,0,0,0,0
1.229,-4.6875,0,0,0,0,0
1.23,-4.875,0,0,0,0,0
1.231,-5.3125,0,0,0,0,0
1.232,-5.6875,0,0,0,0,0
1.233,-6.0625,0,0,0,0,0
1.234,-6.25,0,0,0,0,0
1.235,-6.25,0,0,0,0,0
1.236,-5.6875,0,0,0,0,0
1.237,-5.3125,0,0,0,0,0
1.238,-5.3125,0,0,0,0,0
1.239,-5.4375,0,0,0,0,0
1.24,-5.3125,0,0,0,0,0
1.241,-5.4375,0,0,0,0,0
1.242,-5.5625,0,0,0,0,0
1.243,-6.5625,0,0,0,0,0
1.244,-6.25,0,0,0,0,0
1.245,-5.9375,0,0,0,0,0
1.246,-5.6875,0,0,0,0,0
1.247,-5.75,0,0,0,0,0
1.248,-6,0,0,0,0,0
1.249,-6.25,0,0,0,0,0
1.25,-5.875,0,0,0,0,0
1.251,-5.625,0,0,0,0,0
1.252,-5.75,0,0,0,0,0
1.253,-6.25,0,0,0,0,0
1.254,-7.25,0,0,0,0,0
1.255,-7.625,0,0,0,0,0
1.256,-7.5625,0,0,0,0,0
1.257,-7.3125,0,0,0,0,0
1.258,-7,0,0,0,0,0
1.259,-6.875,0,0,0,0,0
1.26,-6.625,0,0,0,0,0
1.261,-6.25,0,0,0,0,0
1.262,-5.75,0,0,0,0,0
1.263,-5.3125,0,0,0,1,0
1.264,-6.375,0,0,0,0,0
1.265,-6.0625,0,0,0,0,0
1.266,-5.9375,0,0,0,0,0
1.267,-6.0625,0,0,0,0,0
1.268,-6.625,0,0,0,0,0
1.269,-6.875,0,0,0,0,0
1.27,-6.6875,0,0,0,0,0
1.271,-6.875,0,0,0,0,0
1.272,-6.875,0,0,0,0,0
1.273,-7.3125,0,0,0,0,0
1.274,-7.625,0,0,0,0,0
1.275,-7.3125,0,0,0,0,0
1.276,-6.3125,0,0,0,0,0
1.277,-6.375,0,0,0,0,0
1.278,-6.5,0,0,0,0,0
1.279,-6.6875,0,0,0,0,0
1.28,-6.5625,0,0,0,0,0
1.281,-6.875,0,0,0,0,0
1.282,-7.25,0,0,0,0,0
1.283,-7.5,0,0,0,0,0
1.284,-7.25,0,0,0,0,0
1.285,-7,0,0,0,0,0
1.286,-6.4375,0,0,0,0,0
1.287,-6.375,0,0,0,0,0
1.288,-6.6875,0,0,0,0,0
1.289,-6.0625,0,0,0,0,0
1.29,-6,0,0,0,0,0
1.291,-5.9375,0,0,0,0,0
1.292,-5.8125,0,0,0,0,0
1.293,-6.25,0,0,0,0,0
1.294,-6.875,0,0,0,0,0
1.295,-6.875,0,0,0,0,0
1.296,-6.375,0,0,0,0,0
1.297,-6.375,0,0,0,0,0
1.298,-5.3125,0,0,0,0,0
1.299,-3.875,0,0,0,0,0
1.3,-3.5,0,0,0,0,0
1.301,-3.5625,0,0,0,0,0
1.302,-3.1875,0,0,0,0,0
1.303,-3.25,0,0,0,0,0
1.304,-3.5625,0,0,0,0,0
1.305,-4.5,0,0,0,0,0
1.306,-4.875,0,0,0,0,0
1.307,-5.125,0,0,0,0,0
1.308,-4.9375,0,0,0,0,0
1.309,-4.5,0,0,0,0,0
1.31,-4.5,0,0,0,0,0
1.311,-3.875,0,0,0,0,0
1.312,-3.875,0,0,0,0,0
1.313,-3.875,0,0,0,0,0
1.314,-3.9375,0,0,0,0,0
1.315,-3.875,0,0,0,0,0
1.316,-4.1875,0,0,0,0,0
1.317,-4.6875,0,0,0,0,0
1.318,-5.125,0,0,0,0,0
1.319,-5.3125,0,0,0,0,0
1.32,-6.125,0,0,0,0,0
1.321,-6.875,0,0,0,0,0
1.322,-6.6875,0,0,0,0,0
1.323,-6.6875,0,0,0,0,0
1.324,-6.4375,0,0,0,0,0
1.325,-5.75,0,0,0,0,0
1.326,-6,0,0,0,0,0
1.327,-6.5625,0,0,0,0,0
1.328,-6.1875,0,0,0,0,0
1.329,-6.375,0,0,0,0,0
1.33,-6.625,0,0,0,0,0
1.331,-6.5625,0,0,0,0,0
1.332,-6.25,0,0,0,0,0
1.333,-5.625,0,0,0,0,0
1.334,-5.0625,0,0,0,0,0
1.335,-4.1875,0,0,0,0,0
1.336,-4.0625,0,0,0,0,0
1.337,-4.0625,0,0,0,0,0
1.338,-4,0,0,0,0,0
1.339,-3.875,0,0,0,0,0
1.34,-4.25,0,0,0,0,0
1.341,-4.8125,0,0,0,0,0
1.342,-3.6875,0,0,0,0,0
1.343,-3.875,0,0,0,0,0
1.344,-4.75,0,0,0,0,0
1.345,-4.6875,0,0,0,0,0
1.346,-4.4375,0,0,0,0,0
1.347,-4.8125,0,0,0,0,0
1.348,-4.5,0,0,0,0,0
1.349,-4.6875,0,0,0,0,0
1.35,-4.4375,0,0,0,0,0
1.351,-4.375,0,0,0,0,0
1.352,-3.75,0,0,0,0,0
1.353,-4.5,0,0,0,0,0
1.354,-5.125,0,0,0,0,0
1.355,-5.3125,0,0,0,0,0
1.356,-4.5,0,0,0,0,0
1.357,-4.375,0,0,0,0,0
1.358,-3.375,0,0,0,0,0
1.359,-3.25,0,0,0,0,0
1.36,-3.625,0,0,0,0,0
1.361,-4.1875,0,0,0,0,0
1.362,-4.875,0,0,0,0,0
1.363,-5.75,0,0,0,0,0
1.364,-5.875,0,0,0,0,0
1.365,-6.0625,0,0,0,0,0
1.366,-5.875,0,0,0,0,0
1.367,-5.125,0,0,0,0,0
1.368,-4.4375,0,0,0,0,0
1.369,-3.25,0,0,0,0,0
1.37,-3.5625,0,0,0,0,0
1.371,-3.5625,0,0,0,0,0
1.372,-3.5625,0,0,0,0,0
1.373,-3.875,0,0,0,0,0
1.374,-3.8125,0,0,0,0,0
1.375,-3.875,0,0,0,0,0
1.376,-4.0625,0,0,0,0,0
1.377,-4.0625,0,0,0,0,0
1.378,-4.0625,0,0,0,0,0
1.379,-4.375,0,0,0,0,0
1.38,-5.3125,0,0,0,0,1
1.381,-6.0625,0,0,0,0,0
1.382,-6.25,0,0,0,0,0
1.383,-5.9375,0,0,0,0,0
1.384,-5.25,0,0,0,0,0
1.385,-4.6875,0,0,0,0,0
1.386,-4.4375,0,0,0,0,0
1.387,-4.6875,0,0,0,0,0
1.388,-5.1875,0,0,0,0,0
1.389,-5.4375,0,0,0,0,0
1.39,-5.5,0,0,0,0,0
1.391,-6.0625,0,0,0,0,0
1.392,-5.9375,0,0,0,0,0
1.393,-5.625,0,0,0,0,0
1.394,-5.125,0,0,0,0,0
1.395,-5.625,0,0,0,0,0
1.396,-4.8125,0,0,0,0,0
1.397,-4.375,0,0,0,0,0
1.398,-4.5,0,0,0,0,0
1.399,-4.375,0,0,0,0,0
1.4,-4.3125,0,0,0,0,0
1.401,-4.375,0,0,0,0,0
1.402,-3.9375,0,0,0,0,0
1.403,-3.4375,0,0,0,0,0
1.404,-2.9375,0,0,0,0,0
1.405,-2.625,0,0,0,0,0
1.406,-2,0,0,0,0,0
1.407,-2.3125,0,0,0,0,0
1.408,-3.125,0,0,0,0,0
1.409,-3.75,0,0,0,0,0
1.41,-3.125,0,0,0,0,0
1.411,-3.25,0,0,0,0,0
1.412,-3.9375,0,0,0,0,0
1.413,-4.375,0,0,0,0,0
1.414,-4.625,0,0,0,0,0
1.415,-4.8125,0,0,0,0,0
1.416,-4.75,0,0,0,0,0
1.417,-5,0,0,0,0,0
1.418,-5.125,0,0,0,0,0
1.419,-4.5,0,0,0,0,0
1.42,-3.875,0,0,0,0,0
1.421,-4.375,0,0,0,0,0
1.422,-4.125,0,0,0,0,0
1.423,-3.875,0,0,0,0,0
1.424,-3.8125,0,0,0,0,0
1.425,-3.4375,0,0,0,0,0
1.426,-3.3125,0,0,0,0,0
1.427,-3.125,0,0,0,0,0
1.428,-2.875,0,0,0,0,0
1.429,-2.3125,0,0,0,0,0
1.43,-3.25,0,0,0,0,0
1.431,-4.0625,0,0,0,0,0
1.432,-4.375,0,0,0,0,0
1.433,-4.5,0,0,0,0,0
1.434,-4.5625,0,0,0,0,0
1.435,-4.5,0,0,0,0,0
1.436,-5.375,0,0,0,0,0
1.437,-5.625,0,0,0,0,0
1.438,-5.375,0,0,0,0,0
1.439,-5,0,0,0,0,0
1.44,-5.1875,0,0,0,0,0
1.441,-5.4375,0,0,0,0,0
1.442,-4.8125,0,0,0,0,0
1.443,-4.6875,0,0,0,0,0
1.444,-3.25,0,0,0,0,0
1.445,-2.3125,0,0,0,0,0
1.446,-2,0,0,0,0,0
1.447,-2.3125,0,0,0,0,0
1.448,-3.5,0,0,0,0,0
1.449,-4.6875,0,0,0,0,0
1.45,-4.8125,0,0,0,0,0
1.451,-4.5,0,0,0,0,0
1.452,-3.6875,0,0,0,0,0
1.453,-3.75,0,0,0,0,0
1.454,-3.625,0,0,0,0,0
1.455,-2.8125,0,0,0,0,0
1.456,-2.1875,0,0,0,0,0
1.457,-1.0625,0,0,0,0,0
1.458,-1.625,0,0,0,0,0
1.459,-2,0,0,0,0,0
1.46,-3,0,0,0,0,0
1.461,-3.125,0,0,0,0,0
1.462,-3.4375,0,0,0,0,0
1.463,-3.25,0,0,0,0,0
1.464,-3.125,0,0,0,0,0
1.465,-2.9375,0,0,0,0,0
1.466,-2.9375,0,0,0,0,0
1.467,-3.4375,0,0,0,0,0
1.468,-3.8125,0,0,0,0,0
1.469,-4.375,0,0,0,0,0
1.47,-4.0625,0,0,0,0,0
1.471,-3.875,0,0,0,0,0
1.472,-2.75,0,0,0,0,0
1.473,-1.6875,0,0,0,0,0
1.474,-2.25,0,0,0,0,0
1.475,-2,0,0,0,0,0
1.476,-2,0,0,0,0,0
1.477,-2.3125,0,0,0,0,0
1.478,-3,0,0,0,0,0
1.479,-3.4375,0,0,0,0,0
1.48,-4.25,0,0,0,0,0
1.481,-4.6875,0,0,0,0,0
1.482,-4.1875,0,0,0,0,0
1.483,-4.5,0,0,0,0,0
1.484,-3.6875,0,0,0,0,0
1.485,-3.4375,0,0,0,0,0
1.486,-4.4375,0,0,0,0,0
1.487,-4.5,0,0,0,0,0
1.488,-4.4375,0,0,0,0,0
1.489,-4.8125,0,0,0,0,0
1.49,-4.625,0,0,0,0,0
1.491,-4.0625,0,0,0,0,0
1.492,-3.8125,0,0,0,0,0
1.493,-4.1875,0,0,0,0,0
1.494,-4.5625,0,0,0,0,0
1.495,-4.6875,0,0,0,0,0
1.496,-4.8125,0,0,0,0,0
1.497,-4.8125,0,0,0,0,0
1.498,-4.8125,0,0,0,0,0
1.499,-4.8125,0,0,0,0,0
1.5,-4.375,0,0,0,0,0
1.501,-4.8125,0,0,0,0,0
1.502,-4.75,0,0,0,0,0
1.503,-4.1875,0,0,0,0,0
1.504,-4.0625,0,0,0,0,0
1.505,-3.875,0,0,0,0,0
1.506,-4.0625,0,0,0,0,0
1.507,-3.875,0,0,0,0,0
1.508,-3.6875,0,0,0,0,0
1.509,-3.75,0,0,0,0,0
1.51,-3.25,0,0,0,0,0
1.511,-3.125,0,0,0,0,0
1.512,-3.3125,0,0,0,0,0
1.513,-3.4375,0,0,0,0,0
1.514,-3.4375,0,0,0,0,0
1.515,-3.125,0,0,0,0,0
1.516,-2.875,0,0,0,0,0
1.517,-2.625,0,0,0,0,0
1.518,-2.875,0,0,0,0,0
1.519,-3.25,0,0,0,0,0
1.52,-4.4375,0,0,0,0,0
1.521,-5.125,0,0,0,0,0
1.522,-4.9375,0,0,0,0,0
1.523,-4.5,0,0,0,0,0
1.524,-3.5625,0,0,0,0,0
1.525,-2.625,0,0,0,0,0
1.526,-3.25,0,0,0,0,0
1.527,-3.5625,0,0,0,0,0
1.528,-3.1875,0,0,0,0,0
1.529,-2.9375,0,0,0,0,0
1.53,-2.625,0,0,0,0,0
1.531,-2.8125,0,0,0,0,0
1.532,-2.875,0,0,0,0,0
1.533,-2.9375,0,0,0,0,0
1.534,-3.1875,0,0,0,0,0
1.535,-2.9375,0,0,0,0,0
1.536,-3.5625,0,0,0,0,0
1.537,-3.875,0,0,0,0,0
1.538,-4.0625,0,0,0,0,0
1.539,-3.75,0,0,0,0,0
1.54,-3.8125,0,0,0,0,0
1.541,-3.4375,0,0,0,0,0
1.542,-3.6875,0,0,0,0,0
1.543,-3.5625,0,0,0,0,0
1.544,-3.4375,0,0,0,0,0
1.545,-3.5625,0,0,0,0,0
1.546,-3.5625,0,0,0,0,0
1.547,-4.0625,0,0,0,0,0
1.548,-3.5,0,0,0,0,0
1.549,-4.0625,0,0,0,0,0
1.55,-4.25,0,0,0,0,0
1.551,-4.1875,0,0,0,0,0
1.552,-4.25,0,0,0,0,0
1.553,-4.0625,0,0,0,0,0
1.554,-4.3125,0,0,0,0,0
1.555,-4.1875,0,0,0,0,0
1.556,-4.5,0,0,0,0,0
1.557,-4.8125,0,0,0,0,0
1.558,-5.0625,0,0,0,0,0
1.559,-5,0,0,0,0,0
1.56,-4.5625,0,0,0,0,0
1.561,-4.5,0,0,0,0,0
1.562,-4.5,0,0,0,0,0
1.563,-4.1875,0,0,0,0,0
1.564,-3.6875,0,0,0,0,0
1.565,-3.25,0,0,0,0,0
1.566,-2.9375,0,0,0,0,0
1.567,-3.25,0,0,0,0,0
1.568,-3.8125,0,0,0,0,0
1.569,-4.0625,0,0,0,0,0
1.57,-4.375,0,0,0,0,0
1.571,-4.6875,0,0,0,0,0
1.572,-4.375,0,0,0,0,0
1.573,-4.375,0,0,0,0,0
1.574,-4.125,0,0,0,0,0
1.575,-3.4375,0,0,0,0,0
1.576,-2.5625,0,0,0,0,0
1.577,-2,0,0,0,0,0
1.578,-2.375,0,0,0,0,0
1.579,-2.5,0,0,0,0,0
1.58,-2.875,0,0,0,0,0
1.581,-3.4375,0,0,0,0,0
1.582,-3.1875,0,0,0,0,0
1.583,-3.75,0,0,0,0,0
1.584,-3.8125,0,0,0,0,0
1.585,-3.25,0,0,0,0,0
1.586,-3.875,0,0,0,0,0
1.587,-4.375,0,0,0,0,0
1.588,-4.0625,0,0,0,0,0
1.589,-3.875,0,0,0,0,0
1.59,-3.9375,0,0,0,0,0
1.591,-3.4375,0,0,0,0,0
1.592,-3.6875,0,0,0,0,0
1.593,-3.75,0,0,0,0,0
1.594,-4.1875,0,0,0,0,0
1.595,-4.8125,0,0,0,0,0
1.596,-4.4375,0,0,0,0,0
1.597,-4.375,0,0,0,0,0
1.598,-4.25,0,0,0,0,0
1.599,-4.0625,0,0,0,0,0
1.6,-2.4375,0,0,0,0,0
1.601,-2,0,0,0,0,0
1.602,-2.75,0,0,0,0,0
1.603,-2.8125,0,0,0,0,0
1.604,-2.9375,0,0,0,0,0
1.605,-3.25,0,0,0,0,0
1.606,-3.4375,0,0,0,0,0
1.607,-3.875,0,0,0,0,0
1.608,-3.9375,0,0,0,0,0
1.609,-4.5,0,0,0,0,0
1.61,-4.625,0,0,0,0,0
1.611,-4.0625,0,0,0,0,0
1.612,-3.8125,0,0,0,0,0
1.613,-3.75,0,0,0,0,0
1.614,-3.75,0,0,0,0,0
1.615,-3.5625,0,0,0,0,0
1.616,-3.3125,0,0,0,0,0
1.617,-2.625,0,0,0,0,0
1.618,-2.8125,0,0,0,0,0
1.619,-2.8125,0,0,0,0,0
1.62,-2.3125,0,0,0,0,0
1.621,-2.5,0,0,0,0,0
1.622,-2.375,0,0,0,0,0
1.623,-2.5,0,0,0,0,0
1.624,-2.625,0,0,0,0,0
1.625,-2.8125,0,0,0,0,0
1.626,-3.3125,0,0,0,0,0
1.627,-3.875,0,0,0,0,0
1.628,-3.6875,0,0,0,0,0
1.629,-3.4375,0,0,0,0,0
1.63,-3.5,0,0,0,0,0
1.631,-3.25,0,0,0,0,0
1.632,-2.625,0,0,0,0,0
1.633,-2.5,0,0,0,0,0
1.634,-3.3125,0,0,0,0,0
1.635,-3.5625,0,0,0,0,0
1.636,-4.1875,0,0,0,0,0
1.637,-5.3125,0,0,0,0,0
1.638,-5.3125,0,0,0,0,0
1.639,-5,0,0,0,0,0
1.64,-4.4375,0,0,0,0,0
1.641,-4.1875,0,0,0,0,0
1.642,-3.25,0,0,0,0,0
1.643,-2.5,0,0,0,0,0
1.644,-3,0,0,0,0,0
1.645,-3.875,0,0,0,0,0
1.646,-4.9375,0,0,0,0,0
1.647,-5.4375,0,0,0,0,0
1.648,-5.1875,0,0,0,0,0
1.649,-5.3125,0,0,0,0,0
1.65,-4.3125,0,0,0,0,0
1.651,-3.25,0,0,0,0,0
1.652,-3.1875,0,0,0,0,0
1.653,-3.4375,0,0,0,0,0
1.654,-4,0,0,0,0,0
1.655,-3.875,0,0,0,0,0
1.656,-4.125,0,0,0,0,0
1.657,-3.5625,0,0,0,0,0
1.658,-3.875,0,0,0,0,0
1.659,-3.75,0,0,0,0,0
1.66,-3.625,0,0,0,0,0
1.661,-3.875,0,0,0,0,0
1.662,-3.9375,0,0,0,0,0
1.663,-3.875,0,0,0,0,0
1.664,-3.6875,0,0,0,0,0
1.665,-3.4375,0,0,0,0,0
1.666,-3.3125,0,0,0,0,0
1.667,-3.5625,0,0,0,0,0
1.668,-3.1875,0,0,0,0,0
1.669,-2.8125,0,0,0,0,0
1.67,-3.5625,0,0,0,0,0
1.671,-4.0625,0,0,0,0,0
1.672,-4.5625,0,0,0,0,0
1.673,-4.1875,0,0,0,0,0
1.674,-3.875,0,0,0,0,0
1.675,-3.875,0,0,0,0,0
1.676,-2.875,0,0,0,0,0
1.677,-2.5,0,0,0,0,0
1.678,-2.625,0,0,0,0,0
1.679,-2.8125,0,0,0,0,0
1.68,-4.1875,0,0,0,0,0
1.681,-5.125,0,0,0,0,0
1.682,-5.4375,0,0,0,0,0
1.683,-5.9375,0,0,0,0,0
1.684,-5.5625,0,0,0,0,0
1.685,-5,0,0,0,0,0
1.686,-4.6875,0,0,0,0,0
1.687,-5,0,0,0,0,0
1.688,-5,0,0,0,0,0
1.689,-4.8125,0,0,0,0,0
1.69,-4,0,0,0,0,0
1.691,-3.5625,0,0,0,0,0
1.692,-3.4375,0,0,0,0,0
1.693,-3.5625,0,0,0,0,0
1.694,-3.5,0,0,0,0,0
1.695,-3.5625,0,0,0,0,0
1.696,-3.375,0,0,0,0,0
1.697,-2.9375,0,0,0,0,0
1.698,-2.875,0,0,0,0,0
1.699,-2.5,0,0,0,0,0
1.7,-2.6875,0,0,0,0,0
1.701,-3.4375,0,0,0,0,0
1.702,-3.625,0,0,0,0,0
1.703,-3.5625,0,0,0,0,0
1.704,-2.5625,0,0,0,0,0
1.705,-2.1875,0,0,0,0,0
1.706,-2.5625,0,0,0,0,0
1.707,-2.9375,0,0,0,0,0
1.708,-3.25,0,0,0,0,0
1.709,-3.875,0,0,0,0,0
1.71,-4.4375,0,0,0,0,0
1.711,-4.1875,0,0,0,0,0
1.712,-4.875,0,0,0,0,0
1.713,-5.125,0,0,0,0,0
1.714,-4.6875,0,0,0,0,0
1.715,-4.6875,0,0,0,0,0
1.716,-4.4375,0,0,0,0,0
1.717,-3.75,0,0,0,0,0
1.718,-4.375,0,0,0,0,0
1.719,-4.1875,0,0,0,0,0
1.72,-4.4375,0,0,0,0,0
1.721,-5,0,0,0,0,0
1.722,-5.375,0,0,0,0,0
1.723,-5.4375,0,0,0,0,0
1.724,-5.3125,0,0,0,0,0
1.725,-5.75,0,0,0,0,0
1.726,-5.9375,0,0,0,0,0
1.727,-5.4375,0,0,0,0,0
1.728,-5.125,0,0,0,0,0
1.729,-5.75,0,0,0,0,0
1.73,-6.25,0,0,0,0,0
1.731,-6.25,0,0,0,0,0
1.732,-6.9375,0,0,0,0,0
1.733,-7.8125,0,0,0,0,0
1.734,-7.5625,0,0,0,0,0
1.735,-7.1875,0,0,0,0,0
1.736,-5.8125,0,0,0,0,0
1.737,-4.8125,0,0,0,0,0
1.738,-4.6875,0,0,0,0,0
1.739,-3.5625,0,0,0,0,0
1.74,-3.625,0,0,0,0,0
1.741,-3.4375,0,0,0,0,0
1.742,-3.9375,0,0,0,0,0
1.743,-3.875,0,0,0,0,0
1.744,-4.3125,0,0,0,0,0
1.745,-4.6875,0,0,0,0,0
1.746,-5.0625,0,0,0,0,0
1.747,-5.4375,0,0,0,0,0
1.748,-5.4375,0,0,0,0,0
1.749,-5.625,0,0,0,0,0
1.75,-6.125,0,0,0,0,0
1.751,-5.9375,0,0,0,0,0
1.752,-5.625,0,0,0,0,0
1.753,-5.75,0,0,0,0,0
1.754,-6.125,0,0,0,0,0
1.755,-6.25,0,0,0,0,0
1.756,-6.1875,0,0,0,0,0
1.757,-6.0625,0,0,0,0,0
1.758,-6.625,0,0,0,0,0
1.759,-6.6875,0,0,0,0,0
1.76,-7.0625,0,0,0,0,0
1.761,-7.5,0,0,0,0,0
1.762,-6.875,0,0,0,0,0
1.763,-7.1875,0,0,0,0,0
1.764,-7.6875,0,0,0,0,0
1.765,-7.5,0,0,0,0,0
1.766,-7,0,0,0,0,0
1.767,-7.1875,0,0,0,0,0
1.768,-6.9375,0,0,0,0,0
1.769,-6.5625,0,0,0,0,0
1.77,-6.25,0,0,0,0,0
1.771,-6.25,0,0,0,0,0
1.772,-6.3125,0,0,0,0,0
1.773,-6.25,0,0,0,0,0
1.774,-5.875,0,0,0,0,0
1.775,-6.375,0,0,0,0,0
1.776,-6.3125,0,0,0,0,0
1.777,-6.0625,0,0,0,0,0
1.778,-5.6875,0,0,0,0,0
1.779,-5.625,0,0,0,0,0
1.78,-5.3125,0,0,0,0,0
1.781,-5.4375,0,0,0,0,0
1.782,-5.625,0,0,0,0,0
1.783,-5.3125,0,0,0,0,0
1.784,-4.875,0,0,0,0,0
1.785,-4.6875,0,0,0,0,0
1.786,-4.6875,0,0,0,0,0
1.787,-5.125,0,0,0,0,0
1.788,-5.875,0,0,0,0,0
1.789,-6.375,0,0,0,0,0
1.79,-6.6875,0,0,0,0,0
1.791,-6.5625,0,0,0,0,0
1.792,-5.75,0,0,0,0,0
1.793,-5.625,0,0,0,0,0
1.794,-5.8125,0,0,0,0,0
1.795,-5.625,0,0,0,0,0
1.796,-6.125,0,0,0,0,0
1.797,-6.6875,0,0,0,0,0
1.798,-6.9375,0,0,0,0,0
1.799,-6.875,0,0,0,0,0
1.8,-6.8125,0,0,0,0,0
1.801,-6.875,0,0,0,0,0
1.802,-6.5,0,0,0,0,0
1.803,-7.1875,0,0,0,0,0
1.804,-7.25,0,0,0,0,0
1.805,-7.3125,0,0,0,0,0
1.806,-6.625,0,0,0,0,0
1.807,-5.75,0,0,0,0,0
1.808,-5.375,0,0,0,0,0
1.809,-5.125,0,0,0,0,0
1.81,-5.625,0,0,0,0,0
1.811,-5.75,0,0,0,0,0
1.812,-5.6875,0,0,0,0,0
1.813,-5.3125,0,0,0,0,0
1.814,-4.875,0,0,0,0,0
1.815,-4.8125,0,0,0,0,0
1.816,-4.6875,0,0,0,0,0
1.817,-4.0625,0,0,0,0,0
1.818,-4.625,0,0,0,0,0
1.819,-4.6875,0,0,0,0,0
1.82,-4.625,0,0,0,0,0
1.821,-5.4375,0,0,0,0,0
1.822,-5.0625,0,0,0,0,0
1.823,-4.8125,0,0,0,0,0
1.824,-4.25,0,0,0,0,0
1.825,-4.5,0,0,0,0,0
1.826,-4.5,0,0,0,0,0
1.827,-4.6875,0,0,0,0,0
1.828,-4.5625,0,0,0,0,0
1.829,-4.375,0,0,0,0,0
1.83,-4.0625,0,0,0,0,0
1.831,-3.4375,0,0,0,0,0
1.832,-4.6875,0,0,0,0,0
1.833,-6.25,0,0,0,0,0
1.834,-6.3125,0,0,0,0,0
1.835,-6.375,0,0,0,0,0
1.836,-5.25,0,0,0,0,0
1.837,-5,0,0,0,0,0
1.838,-4.6875,0,0,0,0,0
1.839,-3.875,0,0,0,0,0
1.84,-2.75,0,0,0,0,0
1.841,-1.5625,0,0,0,0,0
1.842,-1.8125,0,0,0,0,0
1.843,-1.6875,0,0,0,0,0
1.844,-1.375,0,0,0,0,0
1.845,-1.375,0,0,0,0,0
1.846,-1.25,0,0,0,0,0
1.847,-1.25,0,0,0,0,0
1.848,-0.75,0,0,0,0,0
1.849,-1.0625,0,0,0,0,0
1.85,-1.6875,0,0,0,0,0
1.851,-1.5625,0,0,0,0,0
1.852,-1.8125,0,0,0,0,0
1.853,-2.1875,0,0,0,0,0
1.854,-2.125,0,0,0,0,0
1.855,-2.5,0,0,0,0,0
1.856,-2.4375,0,0,0,0,0
1.857,-2.1875,0,0,0,0,0
1.858,-2.6875,0,0,0,0,0
1.859,-2.5,0,0,0,0,0
1.86,-2.625,0,0,0,0,0
1.861,-2.5,0,0,0,0,0
1.862,-2.625,0,0,0,0,0
1.863,-2.8125,0,0,0,0,0
1.864,-1.875,0,0,0,0,0
1.865,-1.375,0,0,0,0,0
1.866,-2.625,0,0,0,0,0
1.867,-3.75,0,0,0,0,0
1.868,-3.5,0,0,0,0,0
1.869,-3.4375,0,0,0,0,0
1.87,-3.8125,0,0,0,0,0
1.871,-4.0625,0,0,0,0,0
1.872,-3.875,0,0,0,0,0
1.873,-3.875,0,0,0,0,0
1.874,-3.75,0,0,0,0,0
1.875,-2.9375,0,0,0,0,0
1.876,-2.625,0,0,0,0,0
1.877,-2.625,0,0,0,0,0
1.878,-2.875,0,0,0,0,0
1.879,-2.8125,0,0,0,0,0
1.88,-3.0625,0,0,0,0,0
1.881,-2.9375,0,0,0,0,0
1.882,-3.0625,0,0,0,0,0
1.883,-3.125,0,0,0,0,0
1.884,-2.5,0,0,0,0,0
1.885,-2.1875,0,0,0,0,0
1.886,-1.75,0,0,0,0,0
1.887,-2,0,0,0,0,0
1.888,-2.25,0,0,0,0,0
1.889,-3.125,0,0,0,0,0
1.89,-3,0,0,0,0,0
1.891,-2.8125,0,0,0,0,0
1.892,-2.75,0,0,0,0,0
1.893,-2.1875,0,0,0,0,0
1.894,-2.25,0,0,0,0,0
1.895,-2.5,0,0,0,0,0
1.896,-2.75,0,0,0,0,0
1.897,-3.125,0,0,0,0,0
1.898,-3.375,0,0,0,0,0
1.899,-2.9375,0,0,0,0,0
1.9,-3.1875,0,0,0,0,0
1.901,-3.4375,0,0,0,0,0
1.902,-3.5625,0,0,0,0,0
1.903,-3.875,0,0,0,0,0
1.904,-3.75,0,0,0,0,0
1.905,-3.75,0,0,0,0,0
1.906,-3.5,0,0,0,0,0
1.907,-3.4375,0,0,0,0,0
1.908,-3.625,0,0,0,0,0
1.909,-3.875,0,0,0,0,0
1.91,-4.8125,0,0,0,0,0
1.911,-6.5625,0,0,0,0,0
1.912,-6.875,0,0,0,0,0
1.913,-6.875,0,0,0,0,0
1.914,-6.625,0,0,0,0,0
1.915,-7.1875,0,0,0,0,0
1.916,-6.5,1,0,0,0,0
1.917,-6.5625,0,0,0,0,0
1.918,-8,0,0,0,0,0
1.919,-8.5625,0,0,0,0,0
1.92,-10.063,0,0,0,0,0
1.921,-11.563,0,0,0,0,0
1.922,-11.875,0,0,0,0,0
1.923,-12.313,0,0,0,0,0
1.924,-12.813,0,0,0,0,0
1.925,-13.563,0,0,0,0,0
1.926,-13.563,0,0,0,0,0
1.927,-13.563,0,0,0,0,0
1.928,-12.875,0,0,0,0,0
1.929,-12.313,0,0,0,0,0
1.93,-12.75,0,0,0,0,0
1.931,-13.563,0,0,0,0,0
1.932,-15.125,0,0,0,0,0
1.933,-16.688,0,0,0,0,0
1.934,-18.313,0,0,0,0,0
1.935,-20.625,0,0,0,0,0
1.936,-22.188,0,0,0,0,0
1.937,-24.063,0,0,0,0,0
1.938,-25.563,0,0,0,0,0
1.939,-27.5,0,0,0,0,0
1.94,-30,0,0,0,0,0
1.941,-32.188,0,0,0,0,0
1.942,-33.75,0,0,0,0,0
1.943,-36.375,0,0,0,0,0
1.944,-38.438,0,0,0,0,0
1.945,-40,0,0,0,0,0
1.946,-41.688,0,0,0,0,0
1.947,-43.75,0,0,0,0,0
1.948,-45.625,0,0,0,0,0
1.949,-47.188,0,0,0,0,0
1.95,-48.313,0,0,0,0,0
1.951,-48.875,0,0,0,0,0
1.952,-49.188,0,0,0,0,0
1.953,-49.063,0,0,0,0,0
1.954,-49.938,0,0,0,0,0
1.955,-50.75,0,0,0,0,0
1.956,-51.063,0,1,0,0,0
1.957,-51.063,0,0,0,0,0
1.958,-50.125,0,0,0,0,0
1.959,-47.938,0,0,0,0,0
1.96,-45.438,0,0,0,0,0
1.961,-42.813,0,0,0,0,0
1.962,-40.875,0,0,0,0,0
1.963,-39.063,0,0,0,0,0
1.964,-36.563,0,0,0,0,0
1.965,-34.5,0,0,0,0,0
1.966,-32.375,0,0,0,0,0
1.967,-29.188,0,0,0,0,0
1.968,-25.625,0,0,0,0,0
1.969,-22.188,0,0,0,0,0
1.97,-18.125,0,0,0,0,0
1.971,-14.688,0,0,0,0,0
1.972,-12.563,0,0,0,0,0
1.973,-10.313,0,0,0,0,0
1.974,-8.4375,0,0,0,0,0
1.975,-7.1875,0,0,0,0,0
1.976,-7.0625,0,0,0,0,0
1.977,-7.1875,0,0,0,0,0
1.978,-7.0625,0,0,0,0,0
1.979,-6.5625,0,0,0,0,0
1.98,-5.25,0,0,0,0,0
1.981,-4.6875,0,0,0,0,0
1.982,-3.375,0,0,0,0,0
1.983,-1.875,0,0,0,0,0
1.984,-1.8125,0,0,0,0,0
1.985,-1.25,0,0,0,0,0
1.986,-1.125,0,0,0,0,0
1.987,-1.875,0,0,0,0,0
1.988,-3.0625,0,0,0,0,0
1.989,-4.1875,0,0,0,0,0
1.99,-4.5625,0,0,0,0,0
1.991,-4.1875,0,0,0,0,0
1.992,-4,0,0,0,0,0
1.993,-3.125,0,0,1,0,0
1.994,-3.0625,0,0,0,0,0
1.995,-2.5,0,0,0,0,0
1.996,-1.4375,0,0,0,0,0
1.997,-1.25,0,0,0,0,0
1.998,-1.125,0,0,0,0,0
1.999,-0.625,0,0,0,0,0
2,-0.875,0,0,0,0,0
2.001,-1.5625,0,0,0,0,0
2.002,-1.5,0,0,0,0,0
2.003,-1.6875,0,0,0,0,0
2.004,-1.5,0,0,0,0,0
2.005,-1.5625,0,0,0,0,0
2.006,-1.4375,0,0,0,0,0
2.007,-1.5625,0,0,0,0,0
2.008,-1.5625,0,0,0,0,0
2.009,-2,0,0,0,0,0
2.01,-1.9375,0,0,0,0,0
2.011,-1.5625,0,0,0,0,0
2.012,-2.4375,0,0,0,0,0
2.013,-2.625,0,0,0,0,0
2.014,-2.5625,0,0,0,0,0
2.015,-2.625,0,0,0,0,0
2.016,-2.5625,0,0,0,0,0
2.017,-2.625,0,0,0,0,0
2.018,-3.3125,0,0,0,0,0
2.019,-3.75,0,0,0,0,0
2.02,-4.375,0,0,0,0,0
2.021,-4.8125,0,0,0,0,0
2.022,-6.0625,0,0,0,0,0
2.023,-6.875,0,0,0,0,0
2.024,-5.125,0,0,0,0,0
2.025,-3.4375,0,0,0,0,0
2.026,-3.25,0,0,0,0,0
2.027,-3.875,0,0,0,0,0
2.028,-3.625,0,0,0,0,0
2.029,-2.9375,0,0,0,0,0
2.03,-1.125,0,0,0,0,0
2.031,1.125,0,0,0,0,0
2.032,1.3125,0,0,0,0,0
2.033,1.25,0,0,0,0,0
2.034,0.8125,0,0,0,0,0
2.035,0.9375,0,0,0,0,0
2.036,0.875,0,0,0,0,0
2.037,1.125,0,0,0,0,0
2.038,1.125,0,0,0,0,0
2.039,1.25,0,0,0,0,0
2.04,1.0625,0,0,0,0,0
2.041,0.8125,0,0,0,0,0
2.042,0.625,0,0,0,0,0
2.043,0.9375,0,0,0,0,0
2.044,0.875,0,0,0,0,0
2.045,0.5,0,0,0,0,0
2.046,0.4375,0,0,0,0,0
2.047,0,0,0,0,0,0
2.048,-0.0625,0,0,0,0,0
2.049,-0.125,0,0,0,0,0
2.05,-0.5625,0,0,0,0,0
2.051,-0.75,0,0,0,0,0
2.052,-1,0,0,0,0,0
2.053,-1.0625,0,0,0,0,0
2.054,-1.125,0,0,0,0,0
2.055,-1.25,0,0,0,0,0
2.056,-0.9375,0,0,0,0,0
2.057,-0.625,0,0,0,0,0
2.058,-0.625,0,0,0,0,0
2.059,-0.3125,0,0,0,0,0
2.06,-0.5,0,0,0,0,0
2.061,-0.4375,0,0,0,0,0
2.062,-0.625,0,0,0,0,0
2.063,-0.75,0,0,0,0,0
2.064,-0.1875,0,0,0,0,0
2.065,-0.125,0,0,0,0,0
2.066,-0.6875,0,0,0,0,0
2.067,-1.25,0,0,0,0,0
2.068,-1.5625,0,0,0,0,0
2.069,-1.875,0,0,0,0,0
2.07,-1.8125,0,0,0,0,0
2.071,-2.3125,0,0,0,0,0
2.072,-2.1875,0,0,0,0,0
2.073,-2.1875,0,0,0,0,0
2.074,-2.3125,0,0,0,0,0
2.075,-3.125,0,0,0,0,0
2.076,-4.0625,0,0,0,0,0
2.077,-4.0625,0,0,0,0,0
2.078,-5.5625,0,0,0,0,0
2.079,-6.5625,0,0,0,0,0
2.08,-5.6875,0,0,0,0,0
2.081,-5,0,0,0,0,0
2.082,-2.8125,0,0,0,0,0
2.083,-0.125,0,0,0,0,0
2.084,1.8125,0,0,0,0,0
2.085,3.125,0,0,0,0,0
2.086,2.75,0,0,0,0,0
2.087,2.5,0,0,0,0,0
2.088,2.4375,0,0,0,0,0
2.089,1.875,0,0,0,0,0
2.09,1.8125,0,0,0,0,0
2.091,1.75,0,0,0,0,0
2.092,1.5,0,0,0,0,0
2.093,1.25,0,0,0,0,0
2.094,0,0,0,0,0,0
2.095,-0.4375,0,0,0,0,0
2.096,-0.6875,0,0,0,0,0
2.097,-1.6875,0,0,0,0,0
2.098,-1.875,0,0,0,0,0
2.099,-1.6875,0,0,0,0,0
2.1,-0.9375,0,0,0,0,0
2.101,-0.4375,0,0,0,0,0
2.102,-0.375,0,0,0,0,0
2.103,0,0,0,0,0,0
2.104,0.125,0,0,0,0,0
2.105,-0.3125,0,0,0,0,0
2.106,-0.4375,0,0,0,0,0
2.107,-1.0625,0,0,0,0,0
2.108,-1.75,0,0,0,0,0
2.109,-2,0,0,0,0,0
2.11,-2.0625,0,0,0,0,0
2.111,-2,0,0,0,0,0
2.112,-2.25,0,0,0,0,0
2.113,-2.1875,0,0,0,0,0
2.114,-3.0625,0,0,0,0,0
2.115,-2.3125,0,0,0,0,0
2.116,-1.625,0,0,0,0,0
2.117,-1.875,0,0,0,0,0
2.118,-1.75,0,0,0,0,0
2.119,-1.6875,0,0,0,0,0
2.12,-2.25,0,0,0,0,0
2.121,-1.875,0,0,0,0,0
2.122,-1.4375,0,0,0,0,0
2.123,-1.25,0,0,0,0,0
2.124,-1.5625,0,0,0,0,0
2.125,-1.375,0,0,0,0,0
2.126,-1.0625,0,0,0,0,0
2.127,-1.0625,0,0,0,0,0
2.128,-1.1875,0,0,0,0,0
2.129,-1.375,0,0,0,0,0
2.13,-1,0,0,0,0,0
2.131,-0.75,0,0,0,0,0
2.132,-0.375,0,0,0,0,0
2.133,0.1875,0,0,0,0,0
2.134,0.75,0,0,0,0,0
2.135,1.4375,0,0,0,0,0
2.136,1,0,0,0,0,0
2.137,0.9375,0,0,0,0,0
2.138,0.625,0,0,0,0,0
2.139,0.1875,0,0,0,0,0
2.14,0.375,0,0,0,0,0
2.141,0.3125,0,0,0,0,0
2.142,0.125,0,0,0,0,0
2.143,0,0,0,0,0,0
2.144,0.5625,0,0,0,0,0
2.145,0.5,0,0,0,0,0
2.146,0.3125,0,0,0,0,0
2.147,-0.4375,0,0,0,0,0
2.148,-0.5,0,0,0,0,0
2.149,-0.4375,0,0,0,0,0
2.15,-0.4375,0,0,0,0,0
2.151,0,0,0,0,0,0
2.152,-0.5625,0,0,0,0,0
2.153,-0.3125,0,0,0,0,0
2.154,-0.8125,0,0,0,0,0
2.155,-0.9375,0,0,0,0,0
2.156,-1.125,0,0,0,0,0
2.157,-1.25,0,0,0,0,0
2.158,-1.4375,0,0,0,0,0
2.159,-1.25,0,0,0,0,0
2.16,-1.625,0,0,0,0,0
2.161,-2,0,0,0,0,0
2.162,-2.6875,0,0,0,0,0
2.163,-2.5,0,0,0,0,0
2.164,-2.5625,0,0,0,0,0
2.165,-2.3125,0,0,0,0,0
2.166,-2.625,0,0,0,0,0
2.167,-3.25,0,0,0,0,0
2.168,-3,0,0,0,0,0
2.169,-2.9375,0,0,0,0,0
2.17,-3.3125,0,0,0,0,0
2.171,-3.25,0,0,0,0,0
2.172,-3.5,0,0,0,0,0
2.173,-3.875,0,0,0,0,0
2.174,-4.3125,0,0,0,0,0
2.175,-4.0625,0,0,0,0,0
2.176,-2.1875,0,0,0,0,0
2.177,-0.625,0,0,0,0,0
2.178,0.0625,0,0,0,0,0
2.179,0.5,0,0,0,0,0
2.18,0.3125,0,0,0,0,0
2.181,0.5,0,0,0,0,0
2.182,-0.0625,0,0,0,0,0
2.183,-0.3125,0,0,0,0,0
2.184,0.375,0,0,0,0,0
2.185,0.625,0,0,0,0,0
2.186,0.6875,0,0,0,0,0
2.187,0.5,0,0,0,0,0
2.188,-0.1875,0,0,0,0,0
2.189,-1.25,0,0,0,0,0
2.19,-2.1875,0,0,0,0,0
2.191,-2.8125,0,0,0,0,0
2.192,-2.6875,0,0,0,0,0
2.193,-2.3125,0,0,0,0,0
2.194,-2.25,0,0,0,0,0
2.195,-1.875,0,0,0,0,0
2.196,-1.5625,0,0,0,0,0
2.197,-1.875,0,0,0,0,0
2.198,-2,0,0,0,0,0
2.199,-2,0,0,0,0,0
2.2,-2,0,0,0,0,0
2.201,-2,0,0,0,0,0
2.202,-2,0,0,0,0,0
2.203,-2.3125,0,0,0,0,0
2.204,-2.25,0,0,0,0,0
2.205,-2.625,0,0,0,0,0
2.206,-2.375,0,0,0,0,0
2.207,-2.625,0,0,0,0,0
2.208,-2.75,0,0,0,0,0
2.209,-1.875,0,0,0,0,0
2.21,-0.9375,0,0,0,0,0
2.211,-0.3125,0,0,0,0,0
2.212,-0.75,0,0,0,0,0
2.213,-1.5625,0,0,0,0,0
2.214,-1.4375,0,0,0,0,0
2.215,-1.875,0,0,0,0,0
2.216,-2.25,0,0,0,0,0
2.217,-2.3125,0,0,0,0,0
2.218,-2.75,0,0,0,0,0
2.219,-3.125,0,0,0,0,0
2.22,-3.8125,0,0,0,0,0
2.221,-4.1875,0,0,0,0,0
2.222,-4.375,0,0,0,0,0
2.223,-4.1875,0,0,0,0,0
2.224,-3.75,0,0,0,0,0
2.225,-3.4375,0,0,0,0,0
2.226,-3.25,0,0,0,0,0
2.227,-3.125,0,0,0,0,0
2.228,-1.625,0,0,0,0,0
2.229,-0.3125,0,0,0,0,0
2.23,0.3125,0,0,0,0,0
2.231,0.8125,0,0,0,0,0
2.232,-0.4375,0,0,0,0,0
2.233,-1.875,0,0,0,0,0
2.234,-2.75,0,0,0,0,0
2.235,-3.4375,0,0,0,0,0
2.236,-2.5,0,0,0,0,0
2.237,-2,0,0,0,0,0
2.238,-2.25,0,0,0,0,0
2.239,-2.5,0,0,0,0,0
2.24,-2.75,0,0,0,0,0
2.241,-3.875,0,0,0,0,0
2.242,-4.0625,0,0,0,0,0
2.243,-3.875,0,0,0,0,0
2.244,-3.6875,0,0,0,0,0
2.245,-4.0625,0,0,0,0,0
2.246,-3.5625,0,0,0,0,0
2.247,-3.25,0,0,0,0,0
2.248,-3.0625,0,0,0,0,0
2.249,-3.25,0,0,0,0,0
2.25,-2.75,0,0,0,0,0
2.251,-2.5,0,0,0,0,0
2.252,-2.5,0,0,0,0,0
2.253,-2.3125,0,0,0,0,0
2.254,-2.6875,0,0,0,0,0
2.255,-2.5,0,0,0,0,0
2.256,-2.0625,0,0,0,0,0
2.257,-1.875,0,0,0,0,0
2.258,-2.5625,0,0,0,0,0
2.259,-2.5,0,0,0,0,0
2.26,-2.4375,0,0,0,0,0
2.261,-3.125,0,0,0,0,0
2.262,-3.4375,0,0,0,0,0
2.263,-3.75,0,0,0,0,0
2.264,-3.5,0,0,0,0,0
2.265,-3.75,0,0,0,0,0
2.266,-4.125,0,0,0,0,0
2.267,-4.1875,0,0,0,0,0
2.268,-4.6875,0,0,0,0,0
2.269,-4.8125,0,0,0,0,0
2.27,-5.4375,0,0,0,0,0
2.271,-5.3125,0,0,0,0,0
2.272,-5.25,0,0,0,0,0
2.273,-5.75,0,0,0,0,0
2.274,-5.4375,0,0,0,0,0
2.275,-5.125,0,0,0,0,0
2.276,-4.8125,0,0,0,0,0
2.277,-4.6875,0,0,0,0,0
2.278,-4.5,0,0,0,0,0
2.279,-4.1875,0,0,0,0,0
2.28,-4.625,0,0,0,0,0
2.281,-4.6875,0,0,0,0,0
2.282,-4.125,0,0,0,0,0
2.283,-4.1875,0,0,0,0,0
2.284,-3.75,0,0,0,0,0
2.285,-2.9375,0,0,0,0,0
2.286,-2.625,0,0,0,0,0
2.287,-2.5,0,0,0,0,0
2.288,-2.375,0,0,0,0,0
2.289,-2.9375,0,0,0,0,0
2.29,-3.25,0,0,0,0,0
2.291,-3.875,0,0,0,0,0
2.292,-4.1875,0,0,0,0,0
2.293,-4.5,0,0,0,0,0
2.294,-4.625,0,0,0,0,0
2.295,-5,0,0,0,0,0
2.296,-5.0625,0,0,0,0,0
2.297,-5.125,0,0,0,0,0
2.298,-5.375,0,0,0,0,0
2.299,-5.4375,0,0,0,0,0
2.3,-5.375,0,0,0,0,0
2.301,-5.4375,0,0,0,0,0
2.302,-5.0625,0,0,0,0,0
2.303,-4.8125,0,0,0,0,0
2.304,-4.5,0,0,0,0,0
2.305,-4.5,0,0,0,0,0
2.306,-5.5,0,0,0,0,0
2.307,-7.3125,0,0,0,0,0
2.308,-7.1875,0,0,0,0,0
2.309,-7,0,0,0,0,0
2.31,-6.75,0,0,0,0,0
2.311,-6.6875,0,0,0,0,0
2.312,-6.9375,0,0,0,0,0
2.313,-7.1875,0,0,0,0,0
2.314,-7.0625,0,0,0,0,0
2.315,-7.1875,0,0,0,0,0
2.316,-6.5,0,0,0,0,0
2.317,-6.0625,0,0,0,0,0
2.318,-6.3125,0,0,0,0,0
2.319,-5.9375,0,0,0,0,0
2.32,-5.9375,0,0,0,0,0
2.321,-5.75,0,0,0,1,0
2.322,-5.625,0,0,0,0,0
2.323,-5.625,0,0,0,0,0
2.324,-5.375,0,0,0,0,0
2.325,-5,0,0,0,0,0
2.326,-4.875,0,0,0,0,0
2.327,-4.8125,0,0,0,0,0
2.328,-5.5625,0,0,0,0,0
2.329,-4.8125,0,0,0,0,0
2.33,-4.5,0,0,0,0,0
2.331,-4.5,0,0,0,0,0
2.332,-5.375,0,0,0,0,0
2.333,-5.9375,0,0,0,0,0
2.334,-5.875,0,0,0,0,0
2.335,-6.0625,0,0,0,0,0
2.336,-5.6875,0,0,0,0,0
2.337,-5.75,0,0,0,0,0
2.338,-7.0625,0,0,0,0,0
2.339,-7.8125,0,0,0,0,0
2.34,-7.1875,0,0,0,0,0
2.341,-7.625,0,0,0,0,0
2.342,-6.8125,0,0,0,0,0
2.343,-5.9375,0,0,0,0,0
2.344,-5.125,0,0,0,0,0
2.345,-4.8125,0,0,0,0,0
2.346,-5.1875,0,0,0,0,0
2.347,-5.4375,0,0,0,0,0
2.348,-6.4375,0,0,0,0,0
2.349,-7.5,0,0,0,0,0
2.35,-7.0625,0,0,0,0,0
2.351,-7.1875,0,0,0,0,0
2.352,-7.5625,0,0,0,0,0
2.353,-7,0,0,0,0,0
2.354,-6.1875,0,0,0,0,0
2.355,-5.3125,0,0,0,0,0
2.356,-4,0,0,0,0,0
2.357,-3.125,0,0,0,0,0
2.358,-3.9375,0,0,0,0,0
2.359,-4.1875,0,0,0,0,0
2.36,-4.4375,0,0,0,0,0
2.361,-5.125,0,0,0,0,0
2.362,-5.375,0,0,0,0,0
2.363,-5.3125,0,0,0,0,0
2.364,-5.0625,0,0,0,0,0
2.365,-5.3125,0,0,0,0,0
2.366,-5.1875,0,0,0,0,0
2.367,-5.625,0,0,0,0,0
2.368,-5.625,0,0,0,0,0
2.369,-6.25,0,0,0,0,0
2.37,-6.625,0,0,0,0,0
2.371,-6.875,0,0,0,0,0
2.372,-5.625,0,0,0,0,0
2.373,-4.1875,0,0,0,0,0
2.374,-4.3125,0,0,0,0,0
2.375,-3.75,0,0,0,0,0
2.376,-3.5,0,0,0,0,0
2.377,-3.25,0,0,0,0,0
2.378,-3.3125,0,0,0,0,0
2.379,-3.25,0,0,0,0,0
2.38,-3.3125,0,0,0,0,0
2.381,-3.5625,0,0,0,0,0
2.382,-4.8125,0,0,0,0,0
2.383,-5.75,0,0,0,0,0
2.384,-5.75,0,0,0,0,0
2.385,-5.625,0,0,0,0,0
2.386,-5.6875,0,0,0,0,0
2.387,-5.9375,0,0,0,0,0
2.388,-5.5625,0,0,0,0,0
2.389,-4.8125,0,0,0,0,0
2.39,-4.0625,0,0,0,0,0
2.391,-3.5625,0,0,0,0,0
2.392,-3.5,0,0,0,0,0
2.393,-4.0625,0,0,0,0,0
2.394,-4.1875,0,0,0,0,0
2.395,-4.0625,0,0,0,0,0
2.396,-4.125,0,0,0,0,0
2.397,-3.875,0,0,0,0,0
2.398,-3.8125,0,0,0,0,0
2.399,-3.4375,0,0,0,0,0
2.4,-3.8125,0,0,0,0,0
2.401,-4.375,0,0,0,0,0
2.402,-4.4375,0,0,0,0,0
2.403,-4.5,0,0,0,0,0
2.404,-5.125,0,0,0,0,0
2.405,-5.9375,0,0,0,0,0
2.406,-4.4375,0,0,0,0,0
2.407,-4.375,0,0,0,0,0
2.408,-4.9375,0,0,0,0,0
2.409,-4.5,0,0,0,0,0
2.41,-4.125,0,0,0,0,0
2.411,-4.375,0,0,0,0,0
2.412,-3.8125,0,0,0,0,0
2.413,-3.75,0,0,0,0,0
2.414,-4,0,0,0,0,0
2.415,-4.5,0,0,0,0,0
2.416,-3.8125,0,0,0,0,0
2.417,-4.5,0,0,0,0,0
2.418,-4.625,0,0,0,0,0
2.419,-4.1875,0,0,0,0,0
2.42,-3.875,0,0,0,0,0
2.421,-4.1875,0,0,0,0,0
2.422,-3.4375,0,0,0,0,0
2.423,-3.5625,0,0,0,0,0
2.424,-3.6875,0,0,0,0,0
2.425,-3.875,0,0,0,0,0
2.426,-3.5,0,0,0,0,1
2.427,-3.25,0,0,0,0,0
2.428,-3.0625,0,0,0,0,0
2.429,-2.9375,0,0,0,0,0
2.43,-3.4375,0,0,0,0,0
2.431,-3.4375,0,0,0,0,0
2.432,-3.8125,0,0,0,0,0
2.433,-3.75,0,0,0,0,0
2.434,-4.125,0,0,0,0,0
2.435,-4.1875,0,0,0,0,0
2.436,-4.0625,0,0,0,0,0
2.437,-4.1875,0,0,0,0,0
2.438,-3.75,0,0,0,0,0
2.439,-3.4375,0,0,0,0,0
2.44,-3.9375,0,0,0,0,0
2.441,-4.375,0,0,0,0,0
2.442,-4.4375,0,0,0,0,0
2.443,-4.8125,0,0,0,0,0
2.444,-4.6875,0,0,0,0,0
2.445,-4.375,0,0,0,0,0
2.446,-5.0625,0,0,0,0,0
2.447,-5.3125,0,0,0,0,0
2.448,-5.75,0,0,0,0,0
2.449,-6.375,0,0,0,0,0
2.45,-5.6875,0,0,0,0,0
2.451,-5.4375,0,0,0,0,0
2.452,-5.6875,0,0,0,0,0
2.453,-5.625,0,0,0,0,0
2.454,-6.125,0,0,0,0,0
2.455,-7.1875,0,0,0,0,0
2.456,-7.125,0,0,0,0,0
2.457,-6.875,0,0,0,0,0
2.458,-5.5625,0,0,0,0,0
2.459,-5.125,0,0,0,0,0
2.46,-4.0625,0,0,0,0,0
2.461,-3.25,0,0,0,0,0
2.462,-3.3125,0,0,0,0,0
2.463,-3.125,0,0,0,0,0
2.464,-1.75,0,0,0,0,0
2.465,-0.4375,0,0,0,0,0
2.466,-0.5,0,0,0,0,0
2.467,-0.4375,0,0,0,0,0
2.468,-1.125,0,0,0,0,0
2.469,-2,0,0,0,0,0
2.47,-2,0,0,0,0,0
2.471,-2.9375,0,0,0,0,0
2.472,-3.5,0,0,0,0,0
2.473,-3.875,0,0,0,0,0
2.474,-3.3125,0,0,0,0,0
2.475,-3.5625,0,0,0,0,0
2.476,-3.625,0,0,0,0,0
2.477,-3.25,0,0,0,0,0
2.478,-2.6875,0,0,0,0,0
2.479,-1.875,0,0,0,0,0
2.48,-1.6875,0,0,0,0,0
2.481,-1.875,0,0,0,0,0
2.482,-2.6875,0,0,0,0,0
2.483,-2.8125,0,0,0,0,0
2.484,-2.125,0,0,0,0,0
2.485,-2.5,0,0,0,0,0
2.486,-2.875,0,0,0,0,0
2.487,-3.25,0,0,0,0,0
2.488,-3.625,0,0,0,0,0
2.489,-3.75,0,0,0,0,0
2.49,-3.5,0,0,0,0,0
2.491,-3.125,0,0,0,0,0
2.492,-3.1875,0,0,0,0,0
2.493,-2.9375,0,0,0,0,0
2.494,-3.625,0,0,0,0,0
2.495,-4.1875,0,0,0,0,0
2.496,-4.4375,0,0,0,0,0
2.497,-4.5,0,0,0,0,0
2.498,-4.8125,0,0,0,0,0
2.499,-5,0,0,0,0,0
2.5,-5.3125,0,0,0,0,0
2.501,-5,0,0,0,0,0
2.502,-4.8125,0,0,0,0,0
2.503,-4.5,0,0,0,0,0
2.504,-4.375,0,0,0,0,0
2.505,-4.1875,0,0,0,0,0
2.506,-3.75,0,0,0,0,0
2.507,-3.75,0,0,0,0,0
2.508,-2.8125,0,0,0,0,0
2.509,-2.3125,0,0,0,0,0
2.51,-1.9375,0,0,0,0,0
2.511,-2.1875,0,0,0,0,0
2.512,-3.25,0,0,0,0,0
2.513,-4.375,0,0,0,0,0
2.514,-4.4375,0,0,0,0,0
2.515,-4.0625,0,0,0,0,0
2.516,-2.5,0,0,0,0,0
2.517,-1.875,0,0,0,0,0
2.518,-2.625,0,0,0,0,0
2.519,-2.8125,0,0,0,0,0
2.52,-3,0,0,0,0,0
2.521,-2.8125,0,0,0,0,0
2.522,-2.5625,0,0,0,0,0
2.523,-2.1875,0,0,0,0,0
2.524,-2.75,0,0,0,0,0
2.525,-2.3125,0,0,0,0,0
2.526,-2.5625,0,0,0,0,0
2.527,-2.3125,0,0,0,0,0
2.528,-3,0,0,0,0,0
2.529,-3.75,0,0,0,0,0
2.53,-3.3125,0,0,0,0,0
2.531,-3.4375,0,0,0,0,0
2.532,-3.125,0,0,0,0,0
2.533,-2.9375,0,0,0,0,0
2.534,-2.875,0,0,0,0,0
2.535,-2.9375,0,0,0,0,0
2.536,-2.625,0,0,0,0,0
2.537,-2.5,0,0,0,0,0
2.538,-3.125,0,0,0,0,0
2.539,-2.9375,0,0,0,0,0
2.54,-3.1875,0,0,0,0,0
2.541,-3.75,0,0,0,0,0
2.542,-4,0,0,0,0,0
2.543,-3.875,0,0,0,0,0
2.544,-3.6875,0,0,0,0,0
2.545,-2.9375,0,0,0,0,0
2.546,-3.5,0,0,0,0,0
2.547,-4.8125,0,0,0,0,0
2.548,-5.6875,0,0,0,0,0
2.549,-7.1875,0,0,0,0,0
2.55,-7.9375,0,0,0,0,0
2.551,-7.8125,0,0,0,0,0
2.552,-7.0625,0,0,0,0,0
2.553,-6.6875,0,0,0,0,0
2.554,-6.875,0,0,0,0,0
2.555,-6.6875,0,0,0,0,0
2.556,-5.5625,0,0,0,0,0
2.557,-5,0,0,0,0,0
2.558,-3.5,0,0,0,0,0
2.559,-1.6875,0,0,0,0,0
2.56,-1.3125,0,0,0,0,0
2.561,-0.75,0,0,0,0,0
2.562,-0.625,0,0,0,0,0
2.563,-0.4375,0,0,0,0,0
2.564,-0.25,0,0,0,0,0
2.565,-0.9375,0,0,0,0,0
2.566,-1.5,0,0,0,0,0
2.567,-1.6875,0,0,0,0,0
2.568,-1.3125,0,0,0,0,0
2.569,-0.9375,0,0,0,0,0
2.57,-1.0625,0,0,0,0,0
2.571,-0.9375,0,0,0,0,0
2.572,-1.3125,0,0,0,0,0
2.573,-2,0,0,0,0,0
2.574,-2.0625,0,0,0,0,0
2.575,-2.5,0,0,0,0,0
2.576,-2.625,0,0,0,0,0
2.577,-2.625,0,0,0,0,0
2.578,-2.6875,0,0,0,0,0
2.579,-2.5,0,0,0,0,0
2.58,-2.625,0,0,0,0,0
2.581,-2.8125,0,0,0,0,0
2.582,-2.875,0,0,0,0,0
2.583,-3.125,0,0,0,0,0
2.584,-3.3125,0,0,0,0,0
2.585,-3.125,0,0,0,0,0
2.586,-3.4375,0,0,0,0,0
2.587,-3.5625,0,0,0,0,0
2.588,-3.6875,0,0,0,0,0
2.589,-3.875,0,0,0,0,0
2.59,-3.875,0,0,0,0,0
2.591,-3.5625,0,0,0,0,0
2.592,-3.75,0,0,0,0,0
2.593,-4.0625,0,0,0,0,0
2.594,-4.0625,0,0,0,0,0
2.595,-4.5,0,0,0,0,0
2.596,-4.5,0,0,0,0,0
2.597,-4.5,0,0,0,0,0
2.598,-5,0,0,0,0,0
2.599,-5,0,0,0,0,0
2.6,-5.3125,0,0,0,0,0
2.601,-5.3125,0,0,0,0,0
2.602,-5.4375,0,0,0,0,0
2.603,-5.125,0,0,0,0,0
2.604,-4.9375,0,0,0,0,0
2.605,-4.1875,0,0,0,0,0
2.606,-4.875,0,0,0,0,0
2.607,-5.3125,0,0,0,0,0
2.608,-5.0625,0,0,0,0,0
2.609,-5.125,0,0,0,0,0
2.61,-3,0,0,0,0,0
2.611,-1.25,0,0,0,0,0
2.612,-0.75,0,0,0,0,0
2.613,-1.375,0,0,0,0,0
2.614,-1.6875,0,0,0,0,0
2.615,-1.6875,0,0,0,0,0
2.616,-1.8125,0,0,0,0,0
2.617,-1.6875,0,0,0,0,0
2.618,-2.125,0,0,0,0,0
2.619,-2.1875,0,0,0,0,0
2.62,-2.1875,0,0,0,0,0
2.621,-2.1875,0,0,0,0,0
2.622,-2.4375,0,0,0,0,0
2.623,-2.3125,0,0,0,0,0
2.624,-1.9375,0,0,0,0,0
2.625,-2,0,0,0,0,0
2.626,-2.75,0,0,0,0,0
2.627,-3.25,0,0,0,0,0
2.628,-3.25,0,0,0,0,0
2.629,-3.4375,0,0,0,0,0
2.63,-2.9375,0,0,0,0,0
2.631,-3.125,0,0,0,0,0
2.632,-3.125,0,0,0,0,0
2.633,-2.8125,0,0,0,0,0
2.634,-3,0,0,0,0,0
2.635,-3.25,0,0,0,0,0
2.636,-3.125,0,0,0,0,0
2.637,-3.25,0,0,0,0,0
2.638,-3.4375,0,0,0,0,0
2.639,-3.125,0,0,0,0,0
2.64,-3.1875,0,0,0,0,0
2.641,-3.5625,0,0,0,0,0
2.642,-3.8125,0,0,0,0,0
2.643,-3.75,0,0,0,0,0
2.644,-3.4375,0,0,0,0,0
2.645,-3.25,0,0,0,0,0
2.646,-2.9375,0,0,0,0,0
2.647,-3.4375,0,0,0,0,0
2.648,-3.75,0,0,0,0,0
2.649,-3.4375,0,0,0,0,0
2.65,-3.1875,0,0,0,0,0
2.651,-2.8125,0,0,0,0,0
2.652,-3,0,0,0,0,0
2.653,-2.9375,0,0,0,0,0
2.654,-2.875,0,0,0,0,0
2.655,-3.25,0,0,0,0,0
2.656,-2.875,0,0,0,0,0
2.657,-2.9375,0,0,0,0,0
2.658,-3.75,0,0,0,0,0
2.659,-4.375,0,0,0,0,0
2.66,-4.75,0,0,0,0,0
2.661,-5.3125,0,0,0,0,0
2.662,-5.375,0,0,0,0,0
2.663,-5.3125,0,0,0,0,0
2.664,-5.3125,0,0,0,0,0
2.665,-5.75,0,0,0,0,0
2.666,-6.125,0,0,0,0,0
2.667,-6.25,0,0,0,0,0
2.668,-6.25,0,0,0,0,0
2.669,-6.875,0,0,0,0,0
2.67,-7.625,0,0,0,0,0
2.671,-7.8125,0,0,0,0,0
2.672,-7.1875,0,0,0,0,0
2.673,-6.875,0,0,0,0,0
2.674,-6.875,0,0,0,0,0
2.675,-6.6875,0,0,0,0,0
2.676,-5,0,0,0,0,0
2.677,-3.25,0,0,0,0,0
2.678,-2.625,0,0,0,0,0
2.679,-1.5625,0,0,0,0,0
2.68,-1.6875,0,0,0,0,0
2.681,-2.625,0,0,0,0,0
2.682,-2.9375,0,0,0,0,0
2.683,-2.9375,0,0,0,0,0
2.684,-1.5625,0,0,0,0,0
2.685,-0.4375,0,0,0,0,0
2.686,-0.625,0,0,0,0,0
2.687,-0.9375,0,0,0,0,0
2.688,-1.375,0,0,0,0,0
2.689,-1.375,0,0,0,0,0
2.69,-1.5,0,0,0,0,0
2.691,-1.0625,0,0,0,0,0
2.692,-1.5,0,0,0,0,0
2.693,-2.1875,0,0,0,0,0
2.694,-2.5,0,0,0,0,0
2.695,-2.8125,0,0,0,0,0
2.696,-3.1875,0,0,0,0,0
2.697,-2.9375,0,0,0,0,0
2.698,-3.125,0,0,0,0,0
2.699,-3.125,0,0,0,0,0
2.7,-3.375,0,0,0,0,0
2.701,-3.5625,0,0,0,0,0
2.702,-3.625,0,0,0,0,0
2.703,-3.75,0,0,0,0,0
2.704,-3.75,0,0,0,0,0
2.705,-4.0625,0,0,0,0,0
2.706,-4.125,0,0,0,0,0
2.707,-4.1875,0,0,0,0,0
2.708,-3.75,0,0,0,0,0
2.709,-3.5625,0,0,0,0,0
2.71,-3.1875,0,0,0,0,0
2.711,-2.9375,0,0,0,0,0
2.712,-3.25,0,0,0,0,0
2.713,-2.9375,0,0,0,0,0
2.714,-3.25,0,0,0,0,0
2.715,-2.9375,0,0,0,0,0
2.716,-3.125,0,0,0,0,0
2.717,-3.5625,0,0,0,0,0
2.718,-3.5625,0,0,0,0,0
2.719,-3.125,0,0,0,0,0
2.72,-2.875,0,0,0,0,0
2.721,-3.75,0,0,0,0,0
2.722,-4.25,0,0,0,0,0
2.723,-4.375,0,0,0,0,0
2.724,-4.5,0,0,0,0,0
2.725,-4.6875,0,0,0,0,0
2.726,-3.9375,0,0,0,0,0
2.727,-3.75,0,0,0,0,0
2.728,-3.9375,0,0,0,0,0
2.729,-3.875,0,0,0,0,0
2.73,-3.75,0,0,0,0,0
2.731,-3.25,0,0,0,0,0
2.732,-3.1875,0,0,0,0,0
2.733,-3.125,0,0,0,0,0
2.734,-3.8125,0,0,0,0,0
2.735,-4.5,0,0,0,0,0
2.736,-4.75,0,0,0,0,0
2.737,-4.8125,0,0,0,0,0
2.738,-4.4375,0,0,0,0,0
2.739,-3.875,0,0,0,0,0
2.74,-3.625,0,0,0,0,0
2.741,-3.25,0,0,0,0,0
2.742,-3.1875,0,0,0,0,0
2.743,-3.125,0,0,0,0,0
2.744,-3.25,0,0,0,0,0
2.745,-3.75,0,0,0,0,0
2.746,-4.25,0,0,0,0,0
2.747,-5.3125,0,0,0,0,0
2.748,-3.9375,0,0,0,0,0
2.749,-3.25,0,0,0,0,0
2.75,-3.25,0,0,0,0,0
2.751,-3.25,0,0,0,0,0
2.752,-3.6875,0,0,0,0,0
2.753,-4.375,0,0,0,0,0
2.754,-4.8125,0,0,0,0,0
2.755,-5,0,0,0,0,0
2.756,-5.3125,0,0,0,0,0
2.757,-5.4375,0,0,0,0,0
2.758,-6,0,0,0,0,0
2.759,-6.0625,0,0,0,0,0
2.76,-4.9375,0,0,0,0,0
2.761,-5,0,0,0,0,0
2.762,-4.875,0,0,0,0,0
2.763,-4.0625,0,0,0,0,0
2.764,-2.75,0,0,0,0,0
2.765,-2,0,0,0,0,0
2.766,-2,0,0,0,0,0
2.767,-1.6875,0,0,0,0,0
2.768,-2.6875,0,0,0,0,0
2.769,-3.4375,0,0,0,0,0
2.77,-2.9375,0,0,0,0,0
2.771,-2.5,0,0,0,0,0
2.772,-2.25,0,0,0,0,0
2.773,-2.625,0,0,0,0,0
2.774,-3,0,0,0,0,0
2.775,-3.125,0,0,0,0,0
2.776,-3,0,0,0,0,0
2.777,-2.8125,0,0,0,0,0
2.778,-2.9375,0,0,0,0,0
2.779,-2.8125,0,0,0,0,0
2.78,-3.25,0,0,0,0,0
2.781,-3.75,0,0,0,0,0
2.782,-4.0625,0,0,0,0,0
2.783,-3.875,0,0,0,0,0
2.784,-4,0,0,0,0,0
2.785,-3.75,0,0,0,0,0
2.786,-3.8125,0,0,0,0,0
2.787,-4.0625,0,0,0,0,0
2.788,-3.9375,0,0,0,0,0
2.789,-4.0625,0,0,0,0,0
2.79,-3.75,0,0,0,0,0
2.791,-3.4375,0,0,0,0,0
2.792,-3.75,0,0,0,0,0
2.793,-3.875,0,0,0,0,0
2.794,-3.8125,0,0,0,0,0
2.795,-3.5625,0,0,0,0,0
2.796,-3.8125,0,0,0,0,0
2.797,-3.5625,0,0,0,0,0
2.798,-3.3125,0,0,0,0,0
2.799,-3.25,0,0,0,0,0
2.8,-4.125,0,0,0,0,0
2.801,-5,0,0,0,0,0
2.802,-4.3125,0,0,0,0,0
2.803,-4.0625,0,0,0,0,0
2.804,-3.75,0,0,0,0,0
2.805,-3.25,0,0,0,0,0
2.806,-3.125,0,0,0,0,0
2.807,-3.75,0,0,0,0,0
2.808,-4.1875,0,0,0,0,0
2.809,-4.6875,0,0,0,0,0
2.81,-4.4375,0,0,0,0,0
2.811,-4.8125,0,0,0,0,0
2.812,-5,0,0,0,0,0
2.813,-4.8125,0,0,0,0,0
2.814,-4.4375,0,0,0,0,0
2.815,-4.375,0,0,0,0,0
2.816,-5.5625,0,0,0,0,0
2.817,-6.0625,0,0,0,0,0
2.818,-5.6875,0,0,0,0,0
2.819,-5.4375,0,0,0,0,0
2.82,-5.9375,0,0,0,0,0
2.821,-5.75,0,0,0,0,0
2.822,-5.1875,0,0,0,0,0
2.823,-5.125,0,0,0,0,0
2.824,-5.5625,0,0,0,0,0
2.825,-5.625,0,0,0,0,0
2.826,-5.375,0,0,0,0,0
2.827,-5.3125,0,0,0,0,0
2.828,-5.5625,0,0,0,0,0
2.829,-6.25,0,0,0,0,0
2.83,-6.0625,0,0,0,0,0
2.831,-6.0625,0,0,0,0,0
2.832,-6.4375,0,0,0,0,0
2.833,-7.5,0,0,0,0,0
2.834,-7.5,0,0,0,0,0
2.835,-7.8125,0,0,0,0,0
2.836,-7.5,0,0,0,0,0
2.837,-7,0,0,0,0,0
2.838,-6.1875,0,0,0,0,0
2.839,-5.3125,0,0,0,0,0
2.84,-5.25,0,0,0,0,0
2.841,-6.0625,0,0,0,0,0
2.842,-6,0,0,0,0,0
2.843,-5.4375,0,0,0,0,0
2.844,-5.5625,0,0,0,0,0
2.845,-5.75,0,0,0,0,0
2.846,-5.875,0,0,0,0,0
2.847,-6.25,0,0,0,0,0
2.848,-6.3125,0,0,0,0,0
2.849,-6.6875,0,0,0,0,0
2.85,-6.5,0,0,0,0,0
2.851,-6.0625,0,0,0,0,0
2.852,-6.8125,0,0,0,0,0
2.853,-7.1875,0,0,0,0,0
2.854,-7.5625,0,0,0,0,0
2.855,-8.25,0,0,0,0,0
2.856,-8.125,0,0,0,0,0
2.857,-7.5,0,0,0,0,0
2.858,-7.5,0,0,0,0,0
2.859,-7.5,0,0,0,0,0
2.86,-7.5,0,0,0,0,0
2.861,-7.5,0,0,0,0,0
2.862,-7.75,0,0,0,0,0
2.863,-7.8125,0,0,0,0,0
2.864,-7.0625,0,0,0,0,0
2.865,-6.0625,0,0,0,0,0
2.866,-7.25,0,0,0,0,0
2.867,-7.5,0,0,0,0,0
2.868,-6.625,0,0,0,0,0
2.869,-5.625,0,0,0,0,0
2.87,-5.3125,0,0,0,0,0
2.871,-4.8125,0,0,0,0,0
2.872,-5.375,0,0,0,0,0
2.873,-5.75,0,0,0,0,0
2.874,-5.5,0,0,0,0,0
2.875,-5.75,0,0,0,0,0
2.876,-5.9375,0,0,0,0,0
2.877,-5.625,0,0,0,0,0
2.878,-5.8125,0,0,0,0,0
2.879,-5.625,0,0,0,0,0
2.88,-5.375,0,0,0,0,0
2.881,-5.625,0,0,0,0,0
2.882,-5.625,0,0,0,0,0
2.883,-5.625,0,0,0,0,0
2.884,-5.875,0,0,0,0,0
2.885,-5.9375,0,0,0,0,0
2.886,-6.375,0,0,0,0,0
2.887,-7.1875,0,0,0,0,0
2.888,-7.5625,0,0,0,0,0
2.889,-7.9375,0,0,0,0,0
2.89,-7.625,0,0,0,0,0
2.891,-7.5,0,0,0,0,0
2.892,-7.125,0,0,0,0,0
2.893,-6.5625,0,0,0,0,0
2.894,-6.9375,0,0,0,0,0
2.895,-6.6875,0,0,0,0,0
2.896,-6.3125,0,0,0,0,0
2.897,-5.3125,0,0,0,0,0
2.898,-4.5,0,0,0,0,0
2.899,-4.1875,0,0,0,0,0
2.9,-4.1875,0,0,0,0,0
2.901,-4.8125,0,0,0,0,0
2.902,-5.0625,0,0,0,0,0
2.903,-5.125,0,0,0,0,0
2.904,-5,0,0,0,0,0
2.905,-4.5,0,0,0,0,0
2.906,-4.3125,0,0,0,0,0
2.907,-4.5,0,0,0,0,0
2.908,-5.375,0,0,0,0,0
2.909,-6.875,0,0,0,0,0
2.91,-6.9375,0,0,0,0,0
2.911,-6.375,0,0,0,0,0
2.912,-6.25,0,0,0,0,0
2.913,-5.9375,0,0,0,0,0
2.914,-5.625,0,0,0,0,0
2.915,-4.5,0,0,0,0,0
2.916,-4.375,0,0,0,0,0
2.917,-3.75,0,0,0,0,0
2.918,-3.8125,0,0,0,0,0
2.919,-3.875,0,0,0,0,0
2.92,-3.6875,0,0,0,0,0
2.921,-3.875,0,0,0,0,0
2.922,-4.1875,0,0,0,0,0
2.923,-5,0,0,0,0,0
2.924,-5.375,0,0,0,0,0
2.925,-5.125,0,0,0,0,0
2.926,-4.9375,0,0,0,0,0
2.927,-4.0625,0,0,0,0,0
2.928,-4.0625,0,0,0,0,0
2.929,-4.0625,0,0,0,0,0
2.93,-3.8125,0,0,0,0,0
2.931,-3.75,0,0,0,0,0
2.932,-3.1875,0,0,0,0,0
2.933,-3.4375,0,0,0,0,0
2.934,-3.9375,0,0,0,0,0
2.935,-3.75,0,0,0,0,0
2.936,-3.25,0,0,0,0,0
2.937,-2.9375,0,0,0,0,0
2.938,-2.625,0,0,0,0,0
2.939,-2,0,0,0,0,0
2.94,-2.5625,0,0,0,0,0
2.941,-2.8125,0,0,0,0,0
2.942,-3.1875,0,0,0,0,0
2.943,-3.875,0,0,0,0,0
2.944,-3.6875,0,0,0,0,0
2.945,-3.4375,0,0,0,0,0
2.946,-3.625,0,0,0,0,0
2.947,-3.75,0,0,0,0,0
2.948,-3.4375,0,0,0,0,0
2.949,-3.75,0,0,0,0,0
2.95,-3.3125,0,0,0,0,0
2.951,-3.25,0,0,0,0,0
2.952,-2.8125,0,0,0,0,0
2.953,-2.625,0,0,0,0,0
2.954,-3,0,0,0,0,0
2.955,-2.8125,0,0,0,0,0
2.956,-2.3125,0,0,0,0,0
2.957,-2.625,0,0,0,0,0
2.958,-3.1875,0,0,0,0,0
2.959,-2.625,0,0,0,0,0
2.96,-2.1875,0,0,0,0,0
2.961,-2.5,0,0,0,0,0
2.962,-2.625,0,0,0,0,0
2.963,-2.625,0,0,0,0,0
2.964,-2.8125,0,0,0,0,0
2.965,-2.9375,0,0,0,0,0
2.966,-3,0,0,0,0,0
2.967,-3.25,0,0,0,0,0
2.968,-3.0625,0,0,0,0,0
2.969,-3.125,0,0,0,0,0
2.97,-2.75,0,0,0,0,0
2.971,-2.625,0,0,0,0,0
2.972,-2.75,0,0,0,0,0
2.973,-3.125,0,0,0,0,0
2.974,-3.375,0,0,0,0,0
2.975,-3.25,0,0,0,0,0
2.976,-4.1875,0,0,0,0,0
2.977,-3.75,0,0,0,0,0
2.978,-4.375,0,0,0,0,0
2.979,-5.4375,0,0,0,0,0
2.98,-5.9375,0,0,0,0,0
2.981,-5.75,0,0,0,0,0
2.982,-5.375,0,0,0,0,0
2.983,-5.4375,0,0,0,0,0
2.984,-4.125,0,0,0,0,0
2.985,-2.8125,0,0,0,0,0
2.986,-3.875,0,0,0,0,0
2.987,-4.8125,0,0,0,0,0
2.988,-5.0625,0,0,0,0,0
2.989,-5.625,0,0,0,0,0
2.99,-4.75,0,0,0,0,0
2.991,-4.1875,0,0,0,0,0
2.992,-3.375,0,0,0,0,0
2.993,-2.8125,0,0,0,0,0
2.994,-3.3125,0,0,0,0,0
2.995,-3.25,0,0,0,0,0
2.996,-3.1875,0,0,0,0,0
2.997,-2.9375,0,0,0,0,0
2.998,-3.25,0,0,0,0,0
2.999,-3.5625,0,0,0,0,0
3,-3.9375,0,0,0,0,0
3.001,-4.6875,0,0,0,0,0
3.002,-5.4375,1,0,0,0,0
3.003,-5.3125,0,0,0,0,0
3.004,-4.9375,0,0,0,0,0
3.005,-4.5,0,0,0,0,0
3.006,-5.4375,0,0,0,0,0
3.007,-5.4375,0,0,0,0,0
3.008,-5.875,0,0,0,0,0
3.009,-6.6875,0,0,0,0,0
3.01,-6.9375,0,0,0,0,0
3.011,-7.5,0,0,0,0,0
3.012,-7.5625,0,0,0,0,0
3.013,-8.125,0,0,0,0,0
3.014,-8.875,0,0,0,0,0
3.015,-9.5,0,0,0,0,0
3.016,-10.125,0,0,0,0,0
3.017,-10.313,0,0,0,0,0
3.018,-11.313,0,0,0,0,0
3.019,-12.313,0,0,0,0,0
3.02,-13.438,0,0,0,0,0
3.021,-14.5,0,0,0,0,0
3.022,-15.688,0,0,0,0,0
3.023,-16.688,0,0,0,0,0
3.024,-17.625,0,0,0,0,0
3.025,-18.75,0,0,0,0,0
3.026,-20.375,0,0,0,0,0
3.027,-21.875,0,0,0,0,0
3.028,-24.375,0,0,0,0,0
3.029,-26.563,0,0,0,0,0
3.03,-28.938,0,0,0,0,0
3.031,-31.063,0,0,0,0,0
3.032,-32.813,0,0,0,0,0
3.033,-34.688,0,0,0,0,0
3.034,-37.5,0,0,0,0,0
3.035,-39.688,0,0,0,0,0
3.036,-41.625,0,0,0,0,0
3.037,-42.938,0,0,0,0,0
3.038,-44.75,0,0,0,0,0
3.039,-47,0,0,0,0,0
3.04,-48.688,0,0,0,0,0
3.041,-50.313,0,0,0,0,0
3.042,-50.875,0,0,0,0,0
3.043,-51.25,0,0,0,0,0
3.044,-51.938,0,0,0,0,0
3.045,-52.813,0,1,0,0,0
3.046,-53.563,0,0,0,0,0
3.047,-54.063,0,0,0,0,0
3.048,-54.125,0,0,0,0,0
3.049,-53.563,0,0,0,0,0
3.05,-51.938,0,0,0,0,0
3.051,-49.688,0,0,0,0,0
3.052,-46.875,0,0,0,0,0
3.053,-44.688,0,0,0,0,0
3.054,-43.188,0,0,0,0,0
3.055,-41.688,0,0,0,0,0
3.056,-40.438,0,0,0,0,0
3.057,-38.25,0,0,0,0,0
3.058,-33.438,0,0,0,0,0
3.059,-28.438,0,0,0,0,0
3.06,-24.813,0,0,0,0,0
3.061,-20.75,0,0,0,0,0
3.062,-16.625,0,0,0,0,0
3.063,-13.75,0,0,0,0,0
3.064,-11.063,0,0,0,0,0
3.065,-8.25,0,0,0,0,0
3.066,-5.6875,0,0,0,0,0
3.067,-4.375,0,0,0,0,0
3.068,-3.75,0,0,0,0,0
3.069,-3.25,0,0,0,0,0
3.07,-3,0,0,0,0,0
3.071,-2.9375,0,0,0,0,0
3.072,-2.9375,0,0,0,0,0
3.073,-3.125,0,0,0,0,0
3.074,-4,0,0,0,0,0
3.075,-5.125,0,0,0,0,0
3.076,-5.3125,0,0,0,0,0
3.077,-5,0,0,0,0,0
3.078,-5.375,0,0,0,0,0
3.079,-6.25,0,0,0,0,0
3.08,-7.3125,0,0,0,0,0
3.081,-8.4375,0,0,0,0,0
3.082,-8.3125,0,0,1,0,0
3.083,-8.75,0,0,0,0,0
3.084,-8.0625,0,0,0,0,0
3.085,-7.625,0,0,0,0,0
3.086,-6.6875,0,0,0,0,0
3.087,-5.625,0,0,0,0,0
3.088,-4.875,0,0,0,0,0
3.089,-3.75,0,0,0,0,0
3.09,-2.4375,0,0,0,0,0
3.091,-1.875,0,0,0,0,0
3.092,-1.5625,0,0,0,0,0
3.093,-0.9375,0,0,0,0,0
3.094,-1,0,0,0,0,0
3.095,-0.4375,0,0,0,0,0
3.096,0.5,0,0,0,0,0
3.097,1.5625,0,0,0,0,0
3.098,1.125,0,0,0,0,0
3.099,0.8125,0,0,0,0,0
3.1,0.1875,0,0,0,0,0
3.101,-0.3125,0,0,0,0,0
3.102,-0.3125,0,0,0,0,0
3.103,-1.25,0,0,0,0,0
3.104,-1,0,0,0,0,0
3.105,-0.125,0,0,0,0,0
3.106,0.125,0,0,0,0,0
3.107,-0.3125,0,0,0,0,0
3.108,-0.5625,0,0,0,0,0
3.109,-0.75,0,0,0,0,0
3.11,-0.8125,0,0,0,0,0
3.111,-0.9375,0,0,0,0,0
3.112,-0.6875,0,0,0,0,0
3.113,-0.9375,0,0,0,0,0
3.114,-0.75,0,0,0,0,0
3.115,-0.625,0,0,0,0,0
3.116,-0.625,0,0,0,0,0
3.117,-0.625,0,0,0,0,0
3.118,-1.3125,0,0,0,0,0
3.119,-1.25,0,0,0,0,0
3.12,-1.0625,0,0,0,0,0
3.121,-1.0625,0,0,0,0,0
3.122,-0.4375,0,0,0,0,0
3.123,-0.4375,0,0,0,0,0
3.124,-0.6875,0,0,0,0,0
3.125,-0.9375,0,0,0,0,0
3.126,-0.8125,0,0,0,0,0
3.127,-1.375,0,0,0,0,0
3.128,-1.6875,0,0,0,0,0
3.129,-1.875,0,0,0,0,0
3.13,-1.5,0,0,0,0,0
3.131,-1.375,0,0,0,0,0
3.132,-1.6875,0,0,0,0,0
3.133,-2.1875,0,0,0,0,0
3.134,-2.25,0,0,0,0,0
3.135,-2.625,0,0,0,0,0
3.136,-3,0,0,0,0,0
3.137,-2.8125,0,0,0,0,0
3.138,-3.1875,0,0,0,0,0
3.139,-3.25,0,0,0,0,0
3.14,-2.75,0,0,0,0,0
3.141,-3.25,0,0,0,0,0
3.142,-3.8125,0,0,0,0,0
3.143,-3.75,0,0,0,0,0
3.144,-2.5,0,0,0,0,0
3.145,-1.25,0,0,0,0,0
3.146,0,0,0,0,0,0
3.147,1.25,0,0,0,0,0
3.148,0.5625,0,0,0,0,0
3.149,-0.625,0,0,0,0,0
3.15,-0.625,0,0,0,0,0
3.151,-0.9375,0,0,0,0,0
3.152,-0.6875,0,0,0,0,0
3.153,-0.625,0,0,0,0,0
3.154,-1.125,0,0,0,0,0
3.155,-0.75,0,0,0,0,0
3.156,-0.5625,0,0,0,0,0
3.157,-0.3125,0,0,0,0,0
3.158,-0.375,0,0,0,0,0
3.159,-0.4375,0,0,0,0,0
3.16,-0.3125,0,0,0,0,0
3.161,0,0,0,0,0,0
3.162,-0.0625,0,0,0,0,0
3.163,0,0,0,0,0,0
3.164,-0.3125,0,0,0,0,0
3.165,-0.125,0,0,0,0,0
3.166,-0.1875,0,0,0,0,0
3.167,-0.625,0,0,0,0,0
3.168,-0.125,0,0,0,0,0
3.169,-0.4375,0,0,0,0,0
3.17,-0.625,0,0,0,0,0
3.171,-0.125,0,0,0,0,0
3.172,-0.0625,0,0,0,0,0
3.173,-0.625,0,0,0,0,0
3.174,-0.6875,0,0,0,0,0
3.175,-0.75,0,0,0,0,0
3.176,-1.25,0,0,0,0,0
3.177,-1.5625,0,0,0,0,0
3.178,-1.5625,0,0,0,0,0
3.179,-1.375,0,0,0,0,0
3.18,-1.375,0,0,0,0,0
3.181,-1.25,0,0,0,0,0
3.182,-1.3125,0,0,0,0,0
3.183,-1.0625,0,0,0,0,0
3.184,-0.8125,0,0,0,0,0
3.185,-0.9375,0,0,0,0,0
3.186,-0.5625,0,0,0,0,0
3.187,-0.625,0,0,0,0,0
3.188,-1.4375,0,0,0,0,0
3.189,-1.5625,0,0,0,0,0
3.19,-1.625,0,0,0,0,0
3.191,-2.1875,0,0,0,0,0
3.192,-3.1875,0,0,0,0,0
3.193,-4.1875,0,0,0,0,0
3.194,-4.0625,0,0,0,0,0
3.195,-3.5625,0,0,0,0,0
3.196,-3.625,0,0,0,0,0
3.197,-3.4375,0,0,0,0,0
3.198,-3.8125,0,0,0,0,0
3.199,-4.1875,0,0,0,0,0
3.2,-3.6875,0,0,0,0,0
3.201,-3.125,0,0,0,0,0
3.202,-2.5625,0,0,0,0,0
3.203,-2,0,0,0,0,0
3.204,-1.4375,0,0,0,0,0
3.205,-1.875,0,0,0,0,0
3.206,-0.75,0,0,0,0,0
3.207,-0.3125,0,0,0,0,0
3.208,-0.0625,0,0,0,0,0
3.209,0.3125,0,0,0,0,0
3.21,-0.625,0,0,0,0,0
3.211,-1.0625,0,0,0,0,0
3.212,0.3125,0,0,0,0,0
3.213,1.125,0,0,0,0,0
3.214,1.5,0,0,0,0,0
3.215,1.25,0,0,0,0,0
3.216,0.875,0,0,0,0,0
3.217,0.9375,0,0,0,0,0
3.218,0.875,0,0,0,0,0
3.219,0.3125,0,0,0,0,0
3.22,-0.25,0,0,0,0,0
3.221,-0.3125,0,0,0,0,0
3.222,-0.5,0,0,0,0,0
3.223,-0.9375,0,0,0,0,0
3.224,-1.3125,0,0,0,0,0
3.225,-1.375,0,0,0,0,0
3.226,-1.25,0,0,0,0,0
3.227,-2.1875,0,0,0,0,0
3.228,-2.625,0,0,0,0,0
3.229,-2.3125,0,0,0,0,0
3.23,-2.4375,0,0,0,0,0
3.231,-2.3125,0,0,0,0,0
3.232,-1.625,0,0,0,0,0
3.233,-1.375,0,0,0,0,0
3.234,-1.375,0,0,0,0,0
3.235,-1.0625,0,0,0,0,0
3.236,-1.375,0,0,0,0,0
3.237,-1.5625,0,0,0,0,0
3.238,-2.125,0,0,0,0,0
3.239,-1.5625,0,0,0,0,0
3.24,-0.9375,0,0,0,0,0
3.241,-0.9375,0,0,0,0,0
3.242,0.125,0,0,0,0,0
3.243,0.3125,0,0,0,0,0
3.244,0.875,0,0,0,0,0
3.245,0.9375,0,0,0,0,0
3.246,0.5625,0,0,0,0,0
3.247,-0.3125,0,0,0,0,0
3.248,-0.9375,0,0,0,0,0
3.249,-1.0625,0,0,0,0,0
3.25,-0.4375,0,0,0,0,0
3.251,-0.4375,0,0,0,0,0
3.252,-0.375,0,0,0,0,0
3.253,-0.9375,0,0,0,0,0
3.254,-0.75,0,0,0,0,0
3.255,-0.9375,0,0,0,0,0
3.256,-0.25,0,0,0,0,0
3.257,0,0,0,0,0,0
3.258,-0.6875,0,0,0,0,0
3.259,-0.75,0,0,0,0,0
3.26,-1.1875,0,0,0,0,0
3.261,-1.6875,0,0,0,0,0
3.262,-1.4375,0,0,0,0,0
3.263,-1.25,0,0,0,0,0
3.264,-0.875,0,0,0,0,0
3.265,-1.25,0,0,0,0,0
3.266,-1.6875,0,0,0,0,0
3.267,-2,0,0,0,0,0
3.268,-2.6875,0,0,0,0,0
3.269,-3.125,0,0,0,0,0
3.27,-3.0625,0,0,0,0,0
3.271,-2.8125,0,0,0,0,0
3.272,-2.1875,0,0,0,0,0
3.273,-2.3125,0,0,0,0,0
3.274,-2.875,0,0,0,0,0
3.275,-2.8125,0,0,0,0,0
3.276,-2.6875,0,0,0,0,0
3.277,-2.5,0,0,0,0,0
3.278,-2.25,0,0,0,0,0
3.279,-2,0,0,0,0,0
3.28,-1.8125,0,0,0,0,0
3.281,-1.6875,0,0,0,0,0
3.282,-1.5,0,0,0,0,0
3.283,-0.9375,0,0,0,0,0
3.284,-0.5625,0,0,0,0,0
3.285,-0.75,0,0,0,0,0
3.286,-1.1875,0,0,0,0,0
3.287,-1.6875,0,0,0,0,0
3.288,-1.875,0,0,0,0,0
3.289,-1.6875,0,0,0,0,0
3.29,-1.5625,0,0,0,0,0
3.291,-1.25,0,0,0,0,0
3.292,-0.9375,0,0,0,0,0
3.293,-0.75,0,0,0,0,0
3.294,-1,0,0,0,0,0
3.295,-1.0625,0,0,0,0,0
3.296,-2.375,0,0,0,0,0
3.297,-2.9375,0,0,0,0,0
3.298,-3.5625,0,0,0,0,0
3.299,-4.0625,0,0,0,0,0
3.3,-3.25,0,0,0,0,0
3.301,-3.125,0,0,0,0,0
3.302,-3.1875,0,0,0,0,0
3.303,-3.25,0,0,0,0,0
3.304,-3.4375,0,0,0,0,0
3.305,-2.9375,0,0,0,0,0
3.306,-3.25,0,0,0,0,0
3.307,-3.75,0,0,0,0,0
3.308,-4.5,0,0,0,0,0
3.309,-5,0,0,0,0,0
3.31,-4.0625,0,0,0,0,0
3.311,-3.4375,0,0,0,0,0
3.312,-2.5625,0,0,0,0,0
3.313,-2.3125,0,0,0,0,0
3.314,-2.6875,0,0,0,0,0
3.315,-3.25,0,0,0,0,0
3.316,-3.6875,0,0,0,0,0
3.317,-3.5625,0,0,0,0,0
3.318,-3.5625,0,0,0,0,0
3.319,-3.125,0,0,0,0,0
3.32,-2.625,0,0,0,0,0
3.321,-2.9375,0,0,0,0,0
3.322,-2.875,0,0,0,0,0
3.323,-2.625,0,0,0,0,0
3.324,-2.25,0,0,0,0,0
3.325,-1.875,0,0,0,0,0
3.326,-2,0,0,0,0,0
3.327,-1.875,0,0,0,0,0
3.328,-3,0,0,0,0,0
3.329,-4.1875,0,0,0,0,0
3.33,-4.6875,0,0,0,0,0
3.331,-4.8125,0,0,0,0,0
3.332,-5.25,0,0,0,0,0
3.333,-5.125,0,0,0,0,0
3.334,-5.0625,0,0,0,0,0
3.335,-5,0,0,0,0,0
3.336,-5.375,0,0,0,0,0
3.337,-4.5,0,0,0,0,0
3.338,-3.5,0,0,0,0,0
3.339,-3.25,0,0,0,0,0
3.34,-3.6875,0,0,0,0,0
3.341,-3.4375,0,0,0,0,0
3.342,-3.25,0,0,0,0,0
3.343,-3.125,0,0,0,0,0
3.344,-3.1875,0,0,0,0,0
3.345,-3.25,0,0,0,0,0
3.346,-2.9375,0,0,0,0,0
3.347,-3.25,0,0,0,0,0
3.348,-4.0625,0,0,0,0,0
3.349,-4.5,0,0,0,0,0
3.35,-4.125,0,0,0,0,0
3.351,-4.0625,0,0,0,0,0
3.352,-4.3125,0,0,0,0,0
3.353,-4.1875,0,0,0,0,0
3.354,-3.8125,0,0,0,0,0
3.355,-3.25,0,0,0,0,0
3.356,-3.1875,0,0,0,0,0
3.357,-2.9375,0,0,0,0,0
3.358,-2.4375,0,0,0,0,0
3.359,-2.625,0,0,0,0,0
3.36,-3.4375,0,0,0,0,0
3.361,-4.1875,0,0,0,0,0
3.362,-4,0,0,0,0,0
3.363,-3.875,0,0,0,0,0
3.364,-3.875,0,0,0,0,0
3.365,-4.0625,0,0,0,0,0
3.366,-4.3125,0,0,0,0,0
3.367,-4.1875,0,0,0,0,0
3.368,-4.5,0,0,0,0,0
3.369,-4.5,0,0,0,0,0
3.37,-4,0,0,0,0,0
3.371,-4.1875,0,0,0,0,0
3.372,-3.8125,0,0,0,0,0
3.373,-3.5625,0,0,0,0,0
3.374,-4.0625,0,0,0,0,0
3.375,-4.1875,0,0,0,0,0
3.376,-4.625,0,0,0,0,0
3.377,-5,0,0,0,0,0
3.378,-5.25,0,0,0,0,0
3.379,-5.3125,0,0,0,0,0
3.38,-6.3125,0,0,0,0,0
3.381,-7.1875,0,0,0,0,0
3.382,-7.625,0,0,0,0,0
3.383,-7.625,0,0,0,0,0
3.384,-6.625,0,0,0,0,0
3.385,-5.3125,0,0,0,0,0
3.386,-5,0,0,0,0,0
3.387,-5.125,0,0,0,0,0
3.388,-5.3125,0,0,0,0,0
3.389,-5.3125,0,0,0,0,0
3.39,-5,0,0,0,0,0
3.391,-4.5,0,0,0,0,0
3.392,-4.3125,0,0,0,0,0
3.393,-4.1875,0,0,0,0,0
3.394,-4.8125,0,0,0,0,0
3.395,-4.8125,0,0,0,0,0
3.396,-4.6875,0,0,0,0,0
3.397,-4.375,0,0,0,0,0
3.398,-5.25,0,0,0,0,0
3.399,-5.625,0,0,0,0,0
3.4,-6.25,0,0,0,0,0
3.401,-6.875,0,0,0,0,0
3.402,-7.25,0,0,0,0,0
3.403,-7.5,0,0,0,0,0
3.404,-7.375,0,0,0,0,0
3.405,-6.875,0,0,0,0,0
3.406,-6.5,0,0,0,0,0
3.407,-6.0625,0,0,0,0,0
3.408,-6,0,0,0,0,0
3.409,-6.0625,0,0,0,0,0
3.41,-4.9375,0,0,0,0,0
3.411,-4.1875,0,0,0,0,0
3.412,-4.4375,0,0,0,0,0
3.413,-4.5,0,0,0,0,0
3.414,-5.25,0,0,0,0,0
3.415,-5.625,0,0,0,0,0
3.416,-5.125,0,0,0,0,0
3.417,-5.3125,0,0,0,0,0
3.418,-5.125,0,0,0,0,0
3.419,-5.75,0,0,0,0,0
3.42,-5.125,0,0,0,0,0
3.421,-4.8125,0,0,0,0,0
3.422,-4.8125,0,0,0,0,0
3.423,-5.625,0,0,0,0,0
3.424,-6.0625,0,0,0,0,0
3.425,-5.75,0,0,0,0,0
3.426,-5.75,0,0,0,0,0
3.427,-5.625,0,0,0,0,0
3.428,-5.6875,0,0,0,0,0
3.429,-5.75,0,0,0,0,0
3.43,-5.625,0,0,0,0,0
3.431,-5.3125,0,0,0,0,0
3.432,-5.75,0,0,0,0,0
3.433,-5.4375,0,0,0,0,0
3.434,-5.5625,0,0,0,0,0
3.435,-5.4375,0,0,0,0,0
3.436,-5.25,0,0,0,1,0
3.437,-5.125,0,0,0,0,0
3.438,-5.6875,0,0,0,0,0
3.439,-6.375,0,0,0,0,0
3.44,-6.6875,0,0,0,0,0
3.441,-6.6875,0,0,0,0,0
3.442,-7.0625,0,0,0,0,0
3.443,-7.1875,0,0,0,0,0
3.444,-6.6875,0,0,0,0,0
3.445,-6.5625,0,0,0,0,0
3.446,-6.375,0,0,0,0,0
3.447,-6.25,0,0,0,0,0
3.448,-6,0,0,0,0,0
3.449,-6.0625,0,0,0,0,0
3.45,-6,0,0,0,0,0
3.451,-6.0625,0,0,0,0,0
3.452,-7.9375,0,0,0,0,0
3.453,-9.1875,0,0,0,0,0
3.454,-8.9375,0,0,0,0,0
3.455,-8.875,0,0,0,0,0
3.456,-8.375,0,0,0,0,0
3.457,-7,0,0,0,0,0
3.458,-5.9375,0,0,0,0,0
3.459,-5,0,0,0,0,0
3.46,-4.4375,0,0,0,0,0
3.461,-3.125,0,0,0,0,0
3.462,-2.3125,0,0,0,0,0
3.463,-1.5625,0,0,0,0,0
3.464,-1.1875,0,0,0,0,0
3.465,-1.5625,0,0,0,0,0
3.466,-2,0,0,0,0,0
3.467,-2.8125,0,0,0,0,0
3.468,-2.9375,0,0,0,0,0
3.469,-3.125,0,0,0,0,0
3.47,-3,0,0,0,0,0
3.471,-3.25,0,0,0,0,0
3.472,-3.3125,0,0,0,0,0
3.473,-3.5625,0,0,0,0,0
3.474,-3.9375,0,0,0,0,0
3.475,-3.875,0,0,0,0,0
3.476,-3.5,0,0,0,0,0
3.477,-3.5625,0,0,0,0,0
3.478,-3.9375,0,0,0,0,0
3.479,-4.0625,0,0,0,0,0
3.48,-4.4375,0,0,0,0,0
3.481,-5,0,0,0,0,0
3.482,-5.375,0,0,0,0,0
3.483,-5.3125,0,0,0,0,0
3.484,-5.3125,0,0,0,0,0
3.485,-5.125,0,0,0,0,0
3.486,-5.125,0,0,0,0,0
3.487,-5.4375,0,0,0,0,0
3.488,-5.5,0,0,0,0,0
3.489,-5.625,0,0,0,0,0
3.49,-4.3125,0,0,0,0,0
3.491,-3.75,0,0,0,0,0
3.492,-4.125,0,0,0,0,0
3.493,-3.875,0,0,0,0,0
3.494,-4.0625,0,0,0,0,0
3.495,-4.6875,0,0,0,0,0
3.496,-5,0,0,0,0,0
3.497,-3.875,0,0,0,0,0
3.498,-3.8125,0,0,0,0,0
3.499,-3.875,0,0,0,0,0
3.5,-3.875,0,0,0,0,0
3.501,-3.75,0,0,0,0,0
3.502,-4.0625,0,0,0,0,0
3.503,-3.875,0,0,0,0,0
3.504,-4.5,0,0,0,0,0
3.505,-4.5,0,0,0,0,0
3.506,-4.5625,0,0,0,0,0
3.507,-4.5,0,0,0,0,0
3.508,-5.25,0,0,0,0,0
3.509,-5.125,0,0,0,0,0
3.51,-5.0625,0,0,0,0,0
3.511,-4.6875,0,0,0,0,0
3.512,-4.375,0,0,0,0,0
3.513,-3.5625,0,0,0,0,0
3.514,-4,0,0,0,0,0
3.515,-3.875,0,0,0,0,0
3.516,-4.3125,0,0,0,0,0
3.517,-4.5,0,0,0,0,0
3.518,-4.375,0,0,0,0,0
3.519,-4.375,0,0,0,0,0
3.52,-5.0625,0,0,0,0,0
3.521,-5.625,0,0,0,0,0
3.522,-4.875,0,0,0,0,0
3.523,-4.375,0,0,0,0,0
3.524,-3.1875,0,0,0,0,0
3.525,-2.9375,0,0,0,0,0
3.526,-3.5625,0,0,0,0,0
3.527,-4.0625,0,0,0,0,0
3.528,-4.625,0,0,0,0,0
3.529,-4.8125,0,0,0,0,0
3.53,-3.9375,0,0,0,0,0
3.531,-3.125,0,0,0,0,0
3.532,-2.5625,0,0,0,0,0
3.533,-2,0,0,0,0,0
3.534,-2.125,0,0,0,0,0
3.535,-1.6875,0,0,0,0,0
3.536,-1.9375,0,0,0,0,0
3.537,-2.8125,0,0,0,0,0
3.538,-3.375,0,0,0,0,0
3.539,-4.1875,0,0,0,0,0
3.54,-4.5625,0,0,0,0,0
3.541,-4.375,0,0,0,0,0
3.542,-4.375,0,0,0,0,0
3.543,-4.5,0,0,0,0,0
3.544,-3.875,0,0,0,0,0
3.545,-3.4375,0,0,0,0,0
3.546,-3.9375,0,0,0,0,0
3.547,-4.1875,0,0,0,0,1
3.548,-5.125,0,0,0,0,0
3.549,-5.4375,0,0,0,0,0
3.55,-5.1875,0,0,0,0,0
3.551,-4.0625,0,0,0,0,0
3.552,-3.0625,0,0,0,0,0
3.553,-2.3125,0,0,0,0,0
3.554,-2.375,0,0,0,0,0
3.555,-2.5,0,0,0,0,0
3.556,-2.5,0,0,0,0,0
3.557,-2.625,0,0,0,0,0
3.558,-2.5,0,0,0,0,0
3.559,-2.3125,0,0,0,0,0
3.56,-2.8125,0,0,0,0,0
3.561,-2.1875,0,0,0,0,0
3.562,-2.5625,0,0,0,0,0
3.563,-2.8125,0,0,0,0,0
3.564,-3.1875,0,0,0,0,0
3.565,-3.125,0,0,0,0,0
3.566,-3.375,0,0,0,0,0
3.567,-3.75,0,0,0,0,0
3.568,-3.625,0,0,0,0,0
3.569,-3.4375,0,0,0,0,0
3.57,-3.25,0,0,0,0,0
3.571,-3.25,0,0,0,0,0
3.572,-3.375,0,0,0,0,0
3.573,-3.5625,0,0,0,0,0
3.574,-3.75,0,0,0,0,0
3.575,-3.75,0,0,0,0,0
3.576,-5,0,0,0,0,0
3.577,-5.75,0,0,0,0,0
3.578,-5.875,0,0,0,0,0
3.579,-5.9375,0,0,0,0,0
3.58,-5.6875,0,0,0,0,0
3.581,-5.125,0,0,0,0,0
3.582,-3.75,0,0,0,0,0
3.583,-2.8125,0,0,0,0,0
3.584,-1.625,0,0,0,0,0
3.585,-1.375,0,0,0,0,0
3.586,-1.25,0,0,0,0,0
3.587,-1.0625,0,0,0,0,0
3.588,-1.9375,0,0,0,0,0
3.589,-2.625,0,0,0,0,0
3.59,-2.5625,0,0,0,0,0
3.591,-3.25,0,0,0,0,0
3.592,-3.0625,0,0,0,0,0
3.593,-2.625,0,0,0,0,0
3.594,-2.1875,0,0,0,0,0
3.595,-2.1875,0,0,0,0,0
3.596,-2.6875,0,0,0,0,0
3.597,-2.625,0,0,0,0,0
3.598,-3.1875,0,0,0,0,0
3.599,-3.25,0,0,0,0,0
3.6,-3.9375,0,0,0,0,0
3.601,-4.1875,0,0,0,0,0
3.602,-3.6875,0,0,0,0,0
3.603,-3.75,0,0,0,0,0
3.604,-4,0,0,0,0,0
3.605,-3.25,0,0,0,0,0
3.606,-3,0,0,0,0,0
3.607,-2.8125,0,0,0,0,0
3.608,-3.9375,0,0,0,0,0
3.609,-5,0,0,0,0,0
3.61,-4.375,0,0,0,0,0
3.611,-4.1875,0,0,0,0,0
3.612,-3,0,0,0,0,0
3.613,-2.3125,0,0,0,0,0
3.614,-1.875,0,0,0,0,0
3.615,-2.3125,0,0,0,0,0
3.616,-2.5625,0,0,0,0,0
3.617,-2.625,0,0,0,0,0
3.618,-2.1875,0,0,0,0,0
3.619,-2.625,0,0,0,0,0
3.62,-3,0,0,0,0,0
3.621,-2.8125,0,0,0,0,0
3.622,-3.0625,0,0,0,0,0
3.623,-2.8125,0,0,0,0,0
3.624,-2.625,0,0,0,0,0
3.625,-2.8125,0,0,0,0,0
3.626,-3.6875,0,0,0,0,0
3.627,-4.0625,0,0,0,0,0
3.628,-3.75,0,0,0,0,0
3.629,-4.1875,0,0,0,0,0
3.63,-4.3125,0,0,0,0,0
3.631,-4.6875,0,0,0,0,0
3.632,-4.5625,0,0,0,0,0
3.633,-4.375,0,0,0,0,0
3.634,-4.4375,0,0,0,0,0
3.635,-4.6875,0,0,0,0,0
3.636,-3.6875,0,0,0,0,0
3.637,-2.5,0,0,0,0,0
3.638,-2,0,0,0,0,0
3.639,-0.9375,0,0,0,0,0
3.64,-1.25,0,0,0,0,0
3.641,-2.1875,0,0,0,0,0
3.642,-2.875,0,0,0,0,0
3.643,-3.125,0,0,0,0,0
3.644,-2.25,0,0,0,0,0
3.645,-1.25,0,0,0,0,0
3.646,-0.625,0,0,0,0,0
3.647,-0.3125,0,0,0,0,0
3.648,-1.6875,0,0,0,0,0
3.649,-2.625,0,0,0,0,0
3.65,-2.8125,0,0,0,0,0
3.651,-2.9375,0,0,0,0,0
3.652,-2.5625,0,0,0,0,0
3.653,-2.625,0,0,0,0,0
3.654,-2.8125,0,0,0,0,0
3.655,-2.8125,0,0,0,0,0
3.656,-3.625,0,0,0,0,0
3.657,-3.75,0,0,0,0,0
3.658,-3.0625,0,0,0,0,0
3.659,-2.625,0,0,0,0,0
3.66,-1.875,0,0,0,0,0
3.661,-1.375,0,0,0,0,0
3.662,-1.125,0,0,0,0,0
3.663,-1.0625,0,0,0,0,0
3.664,-1.5625,0,0,0,0,0
3.665,-1.5625,0,0,0,0,0
3.666,-1.8125,0,0,0,0,0
3.667,-1.6875,0,0,0,0,0
3.668,-2.3125,0,0,0,0,0
3.669,-3.125,0,0,0,0,0
3.67,-2.6875,0,0,0,0,0
3.671,-2.625,0,0,0,0,0
3.672,-2.75,0,0,0,0,0
3.673,-2.5,0,0,0,0,0
3.674,-2.5,0,0,0,0,0
3.675,-2.8125,0,0,0,0,0
3.676,-2.5625,0,0,0,0,0
3.677,-2.625,0,0,0,0,0
3.678,-2.9375,0,0,0,0,0
3.679,-3.25,0,0,0,0,0
3.68,-3.4375,0,0,0,0,0
3.681,-3.875,0,0,0,0,0
3.682,-4.0625,0,0,0,0,0
3.683,-3.875,0,0,0,0,0
3.684,-3.75,0,0,0,0,0
3.685,-3.5625,0,0,0,0,0
3.686,-3.4375,0,0,0,0,0
3.687,-2.9375,0,0,0,0,0
3.688,-2.9375,0,0,0,0,0
3.689,-3.125,0,0,0,0,0
3.69,-2.9375,0,0,0,0,0
3.691,-3.4375,0,0,0,0,0
3.692,-4.125,0,0,0,0,0
3.693,-4.8125,0,0,0,0,0
3.694,-4.375,0,0,0,0,0
3.695,-4.8125,0,0,0,0,0
3.696,-4.75,0,0,0,0,0
3.697,-5,0,0,0,0,0
3.698,-4.4375,0,0,0,0,0
3.699,-3.75,0,0,0,0,0
3.7,-3.4375,0,0,0,0,0
3.701,-2.3125,0,0,0,0,0
3.702,-2.5625,0,0,0,0,0
3.703,-2.1875,0,0,0,0,0
3.704,-2.125,0,0,0,0,0
3.705,-2,0,0,0,0,0
3.706,-2,0,0,0,0,0
3.707,-2.1875,0,0,0,0,0
3.708,-2.125,0,0,0,0,0
3.709,-2.1875,0,0,0,0,0
3.71,-1.3125,0,0,0,0,0
3.711,-0.9375,0,0,0,0,0
3.712,-1.5,0,0,0,0,0
3.713,-2.1875,0,0,0,0,0
3.714,-2.5,0,0,0,0,0
3.715,-2.625,0,0,0,0,0
3.716,-2.625,0,0,0,0,0
3.717,-2.8125,0,0,0,0,0
3.718,-2.625,0,0,0,0,0
3.719,-2.3125,0,0,0,0,0
3.72,-2.75,0,0,0,0,0
3.721,-2.9375,0,0,0,0,0
3.722,-3.375,0,0,0,0,0
3.723,-3.5625,0,0,0,0,0
3.724,-3.3125,0,0,0,0,0
3.725,-3.25,0,0,0,0,0
3.726,-3.4375,0,0,0,0,0
3.727,-3.25,0,0,0,0,0
3.728,-3.4375,0,0,0,0,0
3.729,-3.5625,0,0,0,0,0
3.73,-3.5,0,0,0,0,0
3.731,-3.4375,0,0,0,0,0
3.732,-3.5,0,0,0,0,0
3.733,-3.875,0,0,0,0,0
3.734,-4.1875,0,0,0,0,0
3.735,-4.1875,0,0,0,0,0
3.736,-3.875,0,0,0,0,0
3.737,-3.4375,0,0,0,0,0
3.738,-4.1875,0,0,0,0,0
3.739,-5,0,0,0,0,0
3.74,-5,0,0,0,0,0
3.741,-5.3125,0,0,0,0,0
3.742,-5.4375,0,0,0,0,0
3.743,-5.9375,0,0,0,0,0
3.744,-5.6875,0,0,0,0,0
3.745,-5.75,0,0,0,0,0
3.746,-6.125,0,0,0,0,0
3.747,-7,0,0,0,0,0
3.748,-7.3125,0,0,0,0,0
3.749,-7,0,0,0,0,0
3.75,-4.75,0,0,0,0,0
3.751,-2.625,0,0,0,0,0
3.752,-0.3125,0,0,0,0,0
3.753,2.1875,0,0,0,0,0
3.754,2.1875,0,0,0,0,0
3.755,2.5,0,0,0,0,0
3.756,0.875,0,0,0,0,0
3.757,-0.625,0,0,0,0,0
3.758,-0.625,0,0,0,0,0
3.759,-1.25,0,0,0,0,0
3.76,-1.8125,0,0,0,0,0
3.761,-2.8125,0,0,0,0,0
3.762,-3.1875,0,0,0,0,0
3.763,-3.5625,0,0,0,0,0
3.764,-3.3125,0,0,0,0,0
3.765,-2.9375,0,0,0,0,0
3.766,-2.625,0,0,0,0,0
3.767,-2.1875,0,0,0,0,0
3.768,-2.4375,0,0,0,0,0
3.769,-2.3125,0,0,0,0,0
3.77,-1.8125,0,0,0,0,0
3.771,-1.6875,0,0,0,0,0
3.772,-2,0,0,0,0,0
3.773,-1.6875,0,0,0,0,0
3.774,-1.625,0,0,0,0,0
3.775,-2,0,0,0,0,0
3.776,-2.3125,0,0,0,0,0
3.777,-2.3125,0,0,0,0,0
3.778,-2,0,0,0,0,0
3.779,-2,0,0,0,0,0
3.78,-2.25,0,0,0,0,0
3.781,-2.625,0,0,0,0,0
3.782,-2.625,0,0,0,0,0
3.783,-2.9375,0,0,0,0,0
3.784,-2.75,0,0,0,0,0
3.785,-1.875,0,0,0,0,0
3.786,-1.5625,0,0,0,0,0
3.787,-1.5625,0,0,0,0,0
3.788,-2.0625,0,0,0,0,0
3.789,-2.625,0,0,0,0,0
3.79,-3,0,0,0,0,0
3.791,-3.75,0,0,0,0,0
3.792,-4.25,0,0,0,0,0
3.793,-4.1875,0,0,0,0,0
3.794,-4.5,0,0,0,0,0
3.795,-4.0625,0,0,0,0,0
3.796,-4.375,0,0,0,0,0
3.797,-4.1875,0,0,0,0,0
3.798,-3.375,0,0,0,0,0
3.799,-2.8125,0,0,0,0,0
3.8,-3.125,0,0,0,0,0
3.801,-3.4375,0,0,0,0,0
3.802,-3.75,0,0,0,0,0
3.803,-4.0625,0,0,0,0,0
3.804,-4,0,0,0,0,0
3.805,-4.1875,0,0,0,0,0
3.806,-3.8125,0,0,0,0,0
3.807,-3.4375,0,0,0,0,0
3.808,-4.5625,0,0,0,0,0
3.809,-5.4375,0,0,0,0,0
3.81,-6,0,0,0,0,0
3.811,-5.625,0,0,0,0,0
3.812,-5.4375,0,0,0,0,0
3.813,-5.625,0,0,0,0,0
3.814,-5.375,0,0,0,0,0
3.815,-5.75,0,0,0,0,0
3.816,-5.0625,0,0,0,0,0
3.817,-4.375,0,0,0,0,0
3.818,-2.9375,0,0,0,0,0
3.819,-1.0625,0,0,0,0,0
3.82,-1.0625,0,0,0,0,0
3.821,-1.25,0,0,0,0,0
3.822,-1.5625,0,0,0,0,0
3.823,-1.6875,0,0,0,0,0
3.824,-1.625,0,0,0,0,0
3.825,-2.1875,0,0,0,0,0
3.826,-1.8125,0,0,0,0,0
3.827,-1.25,0,0,0,0,0
3.828,-1.375,0,0,0,0,0
3.829,-2,0,0,0,0,0
3.83,-1.9375,0,0,0,0,0
3.831,-2.1875,0,0,0,0,0
3.832,-2.0625,0,0,0,0,0
3.833,-2.1875,0,0,0,0,0
3.834,-2.5625,0,0,0,0,0
3.835,-2.8125,0,0,0,0,0
3.836,-3.25,0,0,0,0,0
3.837,-3.4375,0,0,0,0,0
3.838,-3.25,0,0,0,0,0
3.839,-3.5625,0,0,0,0,0
3.84,-4.125,0,0,0,0,0
3.841,-4.375,0,0,0,0,0
3.842,-3.5,0,0,0,0,0
3.843,-3.25,0,0,0,0,0
3.844,-3,0,0,0,0,0
3.845,-2.625,0,0,0,0,0
3.846,-2.5625,0,0,0,0,0
3.847,-2.8125,0,0,0,0,0
3.848,-3.75,0,0,0,0,0
3.849,-3.875,0,0,0,0,0
3.85,-3.75,0,0,0,0,0
3.851,-3.125,0,0,0,0,0
3.852,-2.875,0,0,0,0,0
3.853,-3.125,0,0,0,0,0
3.854,-3.75,0,0,0,0,0
3.855,-3.875,0,0,0,0,0
3.856,-4.25,0,0,0,0,0
3.857,-3.875,0,0,0,0,0
3.858,-3.9375,0,0,0,0,0
3.859,-4.1875,0,0,0,0,0
3.86,-4,0,0,0,0,0
3.861,-3.4375,0,0,0,0,0
3.862,-4.125,0,0,0,0,0
3.863,-5.4375,0,0,0,0,0
3.864,-5.875,0,0,0,0,0
3.865,-5.75,0,0,0,0,0
3.866,-5.875,0,0,0,0,0
3.867,-7,0,0,0,0,0
3.868,-7.1875,0,0,0,0,0
3.869,-6.875,0,0,0,0,0
3.87,-6.9375,0,0,0,0,0
3.871,-7.1875,0,0,0,0,0
3.872,-7.375,0,0,0,0,0
3.873,-7.5,0,0,0,0,0
3.874,-7.125,0,0,0,0,0
3.875,-7.1875,0,0,0,0,0
3.876,-7.8125,0,0,0,0,0
3.877,-7.5,0,0,0,0,0
3.878,-6.9375,0,0,0,0,0
3.879,-6.0625,0,0,0,0,0
3.88,-6.375,0,0,0,0,0
3.881,-6.0625,0,0,0,0,0
3.882,-5.625,0,0,0,0,0
3.883,-5,0,0,0,0,0
3.884,-4.625,0,0,0,0,0
3.885,-4.1875,0,0,0,0,0
3.886,-3.1875,0,0,0,0,0
3.887,-2.3125,0,0,0,0,0
3.888,-2.9375,0,0,0,0,0
3.889,-2.9375,0,0,0,0,0
3.89,-3.25,0,0,0,0,0
3.891,-4.0625,0,0,0,0,0
3.892,-4.9375,0,0,0,0,0
3.893,-5.625,0,0,0,0,0
3.894,-5.3125,0,0,0,0,0
3.895,-5,0,0,0,0,0
3.896,-5.0625,0,0,0,0,0
3.897,-4.6875,0,0,0,0,0
3.898,-5.0625,0,0,0,0,0
3.899,-5.4375,0,0,0,0,0
3.9,-5.1875,0,0,0,0,0
3.901,-5.9375,0,0,0,0,0
3.902,-6.625,0,0,0,0,0
3.903,-6.6875,0,0,0,0,0
3.904,-6.1875,0,0,0,0,0
3.905,-6.25,0,0,0,0,0
3.906,-6.375,0,0,0,0,0
3.907,-6.375,0,0,0,0,0
3.908,-6.1875,0,0,0,0,0
3.909,-6.25,0,0,0,0,0
3.91,-6.25,0,0,0,0,0
3.911,-6.0625,0,0,0,0,0
3.912,-5.6875,0,0,0,0,0
3.913,-6.25,0,0,0,0,0
3.914,-6.4375,0,0,0,0,0
3.915,-6.5625,0,0,0,0,0
3.916,-5.75,0,0,0,0,0
3.917,-5.3125,0,0,0,0,0
3.918,-5.1875,0,0,0,0,0
3.919,-5.625,0,0,0,0,0
3.92,-6.0625,0,0,0,0,0
3.921,-6.0625,0,0,0,0,0
3.922,-6.4375,0,0,0,0,0
3.923,-7.1875,0,0,0,0,0
3.924,-7.0625,0,0,0,0,0
3.925,-7.5,0,0,0,0,0
3.926,-7.875,0,0,0,0,0
3.927,-7.9375,0,0,0,0,0
3.928,-7.9375,0,0,0,0,0
3.929,-7.5,0,0,0,0,0
3.93,-5.6875,0,0,0,0,0
3.931,-4.5,0,0,0,0,0
3.932,-4.375,0,0,0,0,0
3.933,-3.75,0,0,0,0,0
3.934,-4.125,0,0,0,0,0
3.935,-4.5,0,0,0,0,0
3.936,-4.875,0,0,0,0,0
3.937,-5,0,0,0,0,0
3.938,-4.8125,0,0,0,0,0
3.939,-4.6875,0,0,0,0,0
3.94,-3.6875,0,0,0,0,0
3.941,-3.75,0,0,0,0,0
3.942,-3.6875,0,0,0,0,0
3.943,-3.5625,0,0,0,0,0
3.944,-3.5,0,0,0,0,0
3.945,-3.25,0,0,0,0,0
3.946,-3.1875,0,0,0,0,0
3.947,-3.25,0,0,0,0,0
3.948,-3.75,0,0,0,0,0
3.949,-3.875,0,0,0,0,0
3.95,-3.875,0,0,0,0,0
3.951,-3.5625,0,0,0,0,0
3.952,-3.3125,0,0,0,0,0
3.953,-3.4375,0,0,0,0,0
3.954,-4.1875,0,0,0,0,0
3.955,-4.5,0,0,0,0,0
3.956,-4.75,0,0,0,0,0
3.957,-4.5,0,0,0,0,0
3.958,-4.0625,0,0,0,0,0
3.959,-4.375,0,0,0,0,0
3.96,-5.0625,0,0,0,0,0
3.961,-5.9375,0,0,0,0,0
3.962,-5.25,0,0,0,0,0
3.963,-5.3125,0,0,0,0,0
3.964,-4.625,0,0,0,0,0
3.965,-4.0625,0,0,0,0,0
3.966,-3.8125,0,0,0,0,0
3.967,-3.4375,0,0,0,0,0
3.968,-3.6875,0,0,0,0,0
3.969,-3.75,0,0,0,0,0
3.97,-3.125,0,0,0,0,0
3.971,-2.8125,0,0,0,0,0
3.972,-2.875,0,0,0,0,0
3.973,-2.9375,0,0,0,0,0
3.974,-2.1875,0,0,0,0,0
3.975,-2.3125,0,0,0,0,0
3.976,-2.5,0,0,0,0,0
3.977,-2.1875,0,0,0,0,0
3.978,-2.375,0,0,0,0,0
3.979,-2.625,0,0,0,0,0
3.98,-4.0625,0,0,0,0,0
3.981,-5.125,0,0,0,0,0
3.982,-4.8125,0,0,0,0,0
3.983,-4.8125,0,0,0,0,0
3.984,-4.75,0,0,0,0,0
3.985,-4.8125,0,0,0,0,0
3.986,-4.9375,0,0,0,0,0
3.987,-5.9375,0,0,0,0,0
3.988,-6.375,0,0,0,0,0
3.989,-6.0625,0,0,0,0,0
3.99,-5.875,0,0,0,0,0
3.991,-5.625,0,0,0,0,0
3.992,-4.75,0,0,0,0,0
3.993,-4.1875,0,0,0,0,0
3.994,-4.1875,0,0,0,0,0
3.995,-4.0625,0,0,0,0,0
3.996,-4.625,0,0,0,0,0
3.997,-4.5,0,0,0,0,0
3.998,-4,0,0,0,0,0
3.999,-3.125,0,0,0,0,0
4,-2.75,0,0,0,0,0
4.001,-2.3125,0,0,0,0,0
4.002,-1.8125,0,0,0,0,0
4.003,-1.6875,0,0,0,0,0
4.004,-1.4375,0,0,0,0,0
4.005,-0.9375,0,0,0,0,0
4.006,-0.25,0,0,0,0,0
4.007,0.3125,0,0,0,0,0
4.008,0,0,0,0,0,0
4.009,-0.125,0,0,0,0,0
4.01,-0.375,0,0,0,0,0
4.011,-0.75,0,0,0,0,0
4.012,-1.25,0,0,0,0,0
4.013,-1.0625,0,0,0,0,0
4.014,-1.0625,0,0,0,0,0
4.015,-1.375,0,0,0,0,0
4.016,-1.625,0,0,0,0,0
4.017,-1.5625,0,0,0,0,0
4.018,-1.6875,0,0,0,0,0
4.019,-1.5625,0,0,0,0,0
4.02,-2.25,0,0,0,0,0
4.021,-2.9375,0,0,0,0,0
4.022,-2.8125,0,0,0,0,0
4.023,-2.9375,0,0,0,0,0
4.024,-1.25,0,0,0,0,0
4.025,-0.125,0,0,0,0,0
4.026,-0.9375,0,0,0,0,0
4.027,-2.3125,0,0,0,0,0
4.028,-2.375,0,0,0,0,0
4.029,-2.5,0,0,0,0,0
4.03,-4.1875,0,0,0,0,0
4.031,-5.4375,0,0,0,0,0
4.032,-5.5625,0,0,0,0,0
4.033,-5.9375,0,0,0,0,0
4.034,-5.1875,0,0,0,0,0
4.035,-4.375,0,0,0,0,0
4.036,-3.875,0,0,0,0,0
4.037,-2.8125,0,0,0,0,0
4.038,-2.375,0,0,0,0,0
4.039,-1.875,0,0,0,0,0
4.04,-2.4375,0,0,0,0,0
4.041,-3.125,0,0,0,0,0
4.042,-3.0625,0,0,0,0,0
4.043,-3.25,0,0,0,0,0
4.044,-3.25,0,0,0,0,0
4.045,-3.4375,0,0,0,0,0
4.046,-3.375,0,0,0,0,0
4.047,-3.25,0,0,0,0,0
4.048,-3.25,0,0,0,0,0
4.049,-4.0625,0,0,0,0,0
4.05,-4.4375,0,0,0,0,0
4.051,-4.5,0,0,0,0,0
4.052,-4.0625,0,0,0,0,0
4.053,-4.375,0,0,0,0,0
4.054,-3.875,1,0,0,0,0
4.055,-4.1875,0,0,0,0,0
4.056,-5.3125,0,0,0,0,0
4.057,-5.4375,0,0,0,0,0
4.058,-5.6875,0,0,0,0,0
4.059,-5.9375,0,0,0,0,0
4.06,-7.0625,0,0,0,0,0
4.061,-8.4375,0,0,0,0,0
4.062,-8.5625,0,0,0,0,0
4.063,-9.0625,0,0,0,0,0
4.064,-9.4375,0,0,0,0,0
4.065,-9.8125,0,0,0,0,0
4.066,-10.313,0,0,0,0,0
4.067,-10.938,0,0,0,0,0
4.068,-13.125,0,0,0,0,0
4.069,-15.75,0,0,0,0,0
4.07,-17.188,0,0,0,0,0
4.071,-18.563,0,0,0,0,0
4.072,-19.313,0,0,0,0,0
4.073,-20.625,0,0,0,0,0
4.074,-22.938,0,0,0,0,0
4.075,-25.625,0,0,0,0,0
4.076,-27.563,0,0,0,0,0
4.077,-30,0,0,0,0,0
4.078,-31.5,0,0,0,0,0
4.079,-32.625,0,0,0,0,0
4.08,-33.813,0,0,0,0,0
4.081,-36.063,0,0,0,0,0
4.082,-36.813,0,0,0,0,0
4.083,-37,0,0,0,0,0
4.084,-37.813,0,0,0,0,0
4.085,-38.875,0,0,0,0,0
4.086,-40.875,0,0,0,0,0
4.087,-42.625,0,0,0,0,0
4.088,-44.875,0,0,0,0,0
4.089,-46.688,0,0,0,0,0
4.09,-47.688,0,0,0,0,0
4.091,-48.25,0,0,0,0,0
4.092,-49.125,0,1,0,0,0
4.093,-49.813,0,0,0,0,0
4.094,-50.063,0,0,0,0,0
4.095,-50,0,0,0,0,0
4.096,-49.438,0,0,0,0,0
4.097,-47.625,0,0,0,0,0
4.098,-45.438,0,0,0,0,0
4.099,-43.125,0,0,0,0,0
4.1,-40.625,0,0,0,0,0
4.101,-38.25,0,0,0,0,0
4.102,-35.813,0,0,0,0,0
4.103,-33.75,0,0,0,0,0
4.104,-31.5,0,0,0,0,0
4.105,-28.125,0,0,0,0,0
4.106,-24.375,0,0,0,0,0
4.107,-20.75,0,0,0,0,0
4.108,-16.188,0,0,0,0,0
4.109,-12.188,0,0,0,0,0
4.11,-9.625,0,0,0,0,0
4.111,-6.875,0,0,0,0,0
4.112,-3.9375,0,0,0,0,0
4.113,-1.6875,0,0,0,0,0
4.114,-2.25,0,0,0,0,0
4.115,-2.9375,0,0,0,0,0
4.116,-2.6875,0,0,0,0,0
4.117,-2,0,0,0,0,0
4.118,-1.125,0,0,0,0,0
4.119,-0.9375,0,0,0,0,0
4.12,-1.9375,0,0,0,0,0
4.121,-2.8125,0,0,0,0,0
4.122,-3.9375,0,0,0,0,0
4.123,-4.6875,0,0,0,0,0
4.124,-4.3125,0,0,0,0,0
4.125,-4.6875,0,0,0,0,0
4.126,-4.6875,0,0,0,0,0
4.127,-4.5,0,0,0,0,0
4.128,-4.75,0,0,0,0,0
4.129,-4.1875,0,0,1,0,0
4.13,-3.5625,0,0,0,0,0
4.131,-2.3125,0,0,0,0,0
4.132,-2.1875,0,0,0,0,0
4.133,-1.5625,0,0,0,0,0
4.134,-1.125,0,0,0,0,0
4.135,-1.5625,0,0,0,0,0
4.136,-1.5,0,0,0,0,0
4.137,-0.9375,0,0,0,0,0
4.138,-0.9375,0,0,0,0,0
4.139,-1.25,0,0,0,0,0
4.14,-1.3125,0,0,0,0,0
4.141,-1.6875,0,0,0,0,0
4.142,-1.25,0,0,0,0,0
4.143,-1.0625,0,0,0,0,0
4.144,-0.9375,0,0,0,0,0
4.145,-0.9375,0,0,0,0,0
4.146,-0.8125,0,0,0,0,0
4.147,-1.25,0,0,0,0,0
4.148,-1.25,0,0,0,0,0
4.149,-0.9375,0,0,0,0,0
4.15,-1.6875,0,0,0,0,0
4.151,-1.6875,0,0,0,0,0
4.152,-1.25,0,0,0,0,0
4.153,-0.9375,0,0,0,0,0
4.154,-1.1875,0,0,0,0,0
4.155,-1.5625,0,0,0,0,0
4.156,-2.0625,0,0,0,0,0
4.157,-2.3125,0,0,0,0,0
4.158,-1.875,0,0,0,0,0
4.159,-1.25,0,0,0,0,0
4.16,-1.5,0,0,0,0,0
4.161,-1.25,0,0,0,0,0
4.162,-1.3125,0,0,0,0,0
4.163,-1.375,0,0,0,0,0
4.164,-1.625,0,0,0,0,0
4.165,-2.625,0,0,0,0,0
4.166,-3.1875,0,0,0,0,0
4.167,-3.4375,0,0,0,0,0
4.168,-3.75,0,0,0,0,0
4.169,-3.75,0,0,0,0,0
4.17,-4.125,0,0,0,0,0
4.171,-4.8125,0,0,0,0,0
4.172,-5.4375,0,0,0,0,0
4.173,-5.4375,0,0,0,0,0
4.174,-6.0625,0,0,0,0,0
4.175,-6.375,0,0,0,0,0
4.176,-6.4375,0,0,0,0,0
4.177,-6.375,0,0,0,0,0
4.178,-6.375,0,0,0,0,0
4.179,-6.375,0,0,0,0,0
4.18,-5.3125,0,0,0,0,0
4.181,-3.75,0,0,0,0,0
4.182,-2.75,0,0,0,0,0
4.183,-2,0,0,0,0,0
4.184,-0.4375,0,0,0,0,0
4.185,0.8125,0,0,0,0,0
4.186,1.5,0,0,0,0,0
4.187,2.1875,0,0,0,0,0
4.188,1.6875,0,0,0,0,0
4.189,1.4375,0,0,0,0,0
4.19,1.375,0,0,0,0,0
4.191,1.4375,0,0,0,0,0
4.192,1.75,0,0,0,0,0
4.193,2.0625,0,0,0,0,0
4.194,2.125,0,0,0,0,0
4.195,2.1875,0,0,0,0,0
4.196,1.875,0,0,0,0,0
4.197,1.875,0,0,0,0,0
4.198,1.1875,0,0,0,0,0
4.199,0.625,0,0,0,0,0
4.2,-0.125,0,0,0,0,0
4.201,-0.9375,0,0,0,0,0
4.202,-0.5,0,0,0,0,0
4.203,-0.625,0,0,0,0,0
4.204,-0.5625,0,0,0,0,0
4.205,-0.625,0,0,0,0,0
4.206,-0.8125,0,0,0,0,0
4.207,-1.0625,0,0,0,0,0
4.208,-1.125,0,0,0,0,0
4.209,-1.6875,0,0,0,0,0
4.21,-1.6875,0,0,0,0,0
4.211,-1.875,0,0,0,0,0
4.212,-1.3125,0,0,0,0,0
4.213,-1.375,0,0,0,0,0
4.214,-1.875,0,0,0,0,0
4.215,-1.375,0,0,0,0,0
4.216,-1.5,0,0,0,0,0
4.217,-0.9375,0,0,0,0,0
4.218,-0.6875,0,0,0,0,0
4.219,-0.625,0,0,0,0,0
4.22,-1.3125,0,0,0,0,0
4.221,-1.5625,0,0,0,0,0
4.222,-1,0,0,0,0,0
4.223,-1.0625,0,0,0,0,0
4.224,-1.375,0,0,0,0,0
4.225,-1.5625,0,0,0,0,0
4.226,-1.1875,0,0,0,0,0
4.227,-1.25,0,0,0,0,0
4.228,-1.1875,0,0,0,0,0
4.229,-1.0625,0,0,0,0,0
4.23,-1.125,0,0,0,0,0
4.231,-1.25,0,0,0,0,0
4.232,-0.875,0,0,0,0,0
4.233,0.3125,0,0,0,0,0
4.234,0.125,0,0,0,0,0
4.235,-0.9375,0,0,0,0,0
4.236,-1,0,0,0,0,0
4.237,-0.75,0,0,0,0,0
4.238,-0.5,0,0,0,0,0
4.239,-0.4375,0,0,0,0,0
4.24,-1.125,0,0,0,0,0
4.241,-1.5625,0,0,0,0,0
4.242,-1.6875,0,0,0,0,0
4.243,-2.3125,0,0,0,0,0
4.244,-2.3125,0,0,0,0,0
4.245,-2.8125,0,0,0,0,0
4.246,-3.5,0,0,0,0,0
4.247,-3.75,0,0,0,0,0
4.248,-3.5,0,0,0,0,0
4.249,-3.125,0,0,0,0,0
4.25,-2.5625,0,0,0,0,0
4.251,-1.6875,0,0,0,0,0
4.252,-2.625,0,0,0,0,0
4.253,-1.875,0,0,0,0,0
4.254,-1.4375,0,0,0,0,0
4.255,-2,0,0,0,0,0
4.256,-2.25,0,0,0,0,0
4.257,-2.625,0,0,0,0,0
4.258,-2.875,0,0,0,0,0
4.259,-2.1875,0,0,0,0,0
4.26,-1.75,0,0,0,0,0
4.261,-1.5625,0,0,0,0,0
4.262,-1.9375,0,0,0,0,0
4.263,-1.875,0,0,0,0,0
4.264,-0.9375,0,0,0,0,0
4.265,-0.3125,0,0,0,0,0
4.266,-0.25,0,0,0,0,0
4.267,-0.3125,0,0,0,0,0
4.268,-1,0,0,0,0,0
4.269,-1.875,0,0,0,0,0
4.27,-2.5625,0,0,0,0,0
4.271,-3.125,0,0,0,0,0
4.272,-2.8125,0,0,0,0,0
4.273,-2.5,0,0,0,0,0
4.274,-2.4375,0,0,0,0,0
4.275,-2,0,0,0,0,0
4.276,-1.3125,0,0,0,0,0
4.277,-0.75,0,0,0,0,0
4.278,-0.3125,0,0,0,0,0
4.279,0,0,0,0,0,0
4.28,-0.8125,0,0,0,0,0
4.281,-1.5625,0,0,0,0,0
4.282,-2,0,0,0,0,0
4.283,-3.125,0,0,0,0,0
4.284,-3.375,0,0,0,0,0
4.285,-4.1875,0,0,0,0,0
4.286,-3.1875,0,0,0,0,0
4.287,-2,0,0,0,0,0
4.288,-1.0625,0,0,0,0,0
4.289,0.3125,0,0,0,0,0
4.29,0.1875,0,0,0,0,0
4.291,0.8125,0,0,0,0,0
4.292,0.25,0,0,0,0,0
4.293,0.1875,0,0,0,0,0
4.294,-0.625,0,0,0,0,0
4.295,-1.375,0,0,0,0,0
4.296,-0.9375,0,0,0,0,0
4.297,0,0,0,0,0,0
4.298,0.3125,0,0,0,0,0
4.299,0.625,0,0,0,0,0
4.3,-0.625,0,0,0,0,0
4.301,-0.9375,0,0,0,0,0
4.302,-0.9375,0,0,0,0,0
4.303,-0.625,0,0,0,0,0
4.304,-0.25,0,0,0,0,0
4.305,-0.125,0,0,0,0,0
4.306,0.0625,0,0,0,0,0
4.307,0,0,0,0,0,0
4.308,-0.375,0,0,0,0,0
4.309,-0.3125,0,0,0,0,0
4.31,-0.3125,0,0,0,0,0
4.311,-0.4375,0,0,0,0,0
4.312,-0.9375,0,0,0,0,0
4.313,-0.75,0,0,0,0,0
4.314,-0.875,0,0,0,0,0
4.315,-1.375,0,0,0,0,0
4.316,-1.0625,0,0,0,0,0
4.317,-1.0625,0,0,0,0,0
4.318,-1.3125,0,0,0,0,0
4.319,-1.25,0,0,0,0,0
4.32,-1.875,0,0,0,0,0
4.321,-2.1875,0,0,0,0,0
4.322,-2.25,0,0,0,0,0
4.323,-2.8125,0,0,0,0,0
4.324,-2.4375,0,0,0,0,0
4.325,-2.1875,0,0,0,0,0
4.326,-1.875,0,0,0,0,0
4.327,-1.875,0,0,0,0,0
4.328,-2.25,0,0,0,0,0
4.329,-2.3125,0,0,0,0,0
4.33,-2.6875,0,0,0,0,0
4.331,-2.8125,0,0,0,0,0
4.332,-3.25,0,0,0,0,0
4.333,-3.4375,0,0,0,0,0
4.334,-3.3125,0,0,0,0,0
4.335,-3.875,0,0,0,0,0
4.336,-3.75,0,0,0,0,0
4.337,-3.4375,0,0,0,0,0
4.338,-4.0625,0,0,0,0,0
4.339,-4.6875,0,0,0,0,0
4.34,-4.5625,0,0,0,0,0
4.341,-4.8125,0,0,0,0,0
4.342,-4.375,0,0,0,0,0
4.343,-4.375,0,0,0,0,0
4.344,-3.125,0,0,0,0,0
4.345,-2.3125,0,0,0,0,0
4.346,-2.6875,0,0,0,0,0
4.347,-2.1875,0,0,0,0,0
4.348,-2.5,0,0,0,0,0
4.349,-3.125,0,0,0,0,0
4.35,-3.3125,0,0,0,0,0
4.351,-3.875,0,0,0,0,0
4.352,-3.875,0,0,0,0,0
4.353,-4.375,0,0,0,0,0
4.354,-4.4375,0,0,0,0,0
4.355,-4.1875,0,0,0,0,0
4.356,-3.8125,0,0,0,0,0
4.357,-3.25,0,0,0,0,0
4.358,-2.875,0,0,0,0,0
4.359,-2.1875,0,0,0,0,0
4.36,-2.3125,0,0,0,0,0
4.361,-2.1875,0,0,0,0,0
4.362,-2.9375,0,0,0,0,0
4.363,-3.875,0,0,0,0,0
4.364,-4.3125,0,0,0,0,0
4.365,-4.8125,0,0,0,0,0
4.366,-5,0,0,0,0,0
4.367,-5.3125,0,0,0,0,0
4.368,-5.25,0,0,0,0,0
4.369,-5.3125,0,0,0,0,0
4.37,-4.625,0,0,0,0,0
4.371,-4.0625,0,0,0,0,0
4.372,-3.875,0,0,0,0,0
4.373,-3.4375,0,0,0,0,0
4.374,-2.8125,0,0,0,0,0
4.375,-2.625,0,0,0,0,0
4.376,-2.9375,0,0,0,0,0
4.377,-3.25,0,0,0,0,0
4.378,-3.25,0,0,0,0,0
4.379,-4.0625,0,0,0,0,0
4.38,-3.9375,0,0,0,0,0
4.381,-3.4375,0,0,0,0,0
4.382,-2.9375,0,0,0,0,0
4.383,-3.125,0,0,0,0,0
4.384,-2.75,0,0,0,0,0
4.385,-2.625,0,0,0,0,0
4.386,-2.8125,0,0,0,0,0
4.387,-3.4375,0,0,0,0,0
4.388,-4.125,0,0,0,0,0
4.389,-5.125,0,0,0,0,0
4.39,-5.125,0,0,0,0,0
4.391,-5,0,0,0,0,0
4.392,-5,0,0,0,0,0
4.393,-4.375,0,0,0,0,0
4.394,-5.25,0,0,0,0,0
4.395,-6.5625,0,0,0,0,0
4.396,-6.5625,0,0,0,0,0
4.397,-5.75,0,0,0,0,0
4.398,-4.75,0,0,0,0,0
4.399,-4.375,0,0,0,0,0
4.4,-4.0625,0,0,0,0,0
4.401,-3.75,0,0,0,0,0
4.402,-3.5625,0,0,0,0,0
4.403,-3.875,0,0,0,0,0
4.404,-4.1875,0,0,0,0,0
4.405,-4.1875,0,0,0,0,0
4.406,-4.4375,0,0,0,0,0
4.407,-4.375,0,0,0,0,0
4.408,-4.8125,0,0,0,0,0
4.409,-4.5,0,0,0,0,0
4.41,-4.4375,0,0,0,0,0
4.411,-4.8125,0,0,0,0,0
4.412,-5.0625,0,0,0,0,0
4.413,-5.3125,0,0,0,0,0
4.414,-5.0625,0,0,0,0,0
4.415,-5,0,0,0,0,0
4.416,-4.8125,0,0,0,0,0
4.417,-4.5,0,0,0,0,0
4.418,-4.9375,0,0,0,0,0
4.419,-5,0,0,0,0,0
4.42,-4.5,0,0,0,0,0
4.421,-4.6875,0,0,0,0,0
4.422,-4.875,0,0,0,0,0
4.423,-4.6875,0,0,0,0,0
4.424,-4.875,0,0,0,0,0
4.425,-5.3125,0,0,0,0,0
4.426,-5.125,0,0,0,0,0
4.427,-5.625,0,0,0,0,0
4.428,-5.5,0,0,0,0,0
4.429,-5.625,0,0,0,0,0
4.43,-5.8125,0,0,0,0,0
4.431,-6.0625,0,0,0,0,0
4.432,-6,0,0,0,0,0
4.433,-6.0625,0,0,0,0,0
4.434,-6.1875,0,0,0,0,0
4.435,-6.25,0,0,0,0,0
4.436,-6.5,0,0,0,0,0
4.437,-6.6875,0,0,0,0,0
4.438,-6.625,0,0,0,0,0
4.439,-6.6875,0,0,0,0,0
4.44,-6.8125,0,0,0,0,0
4.441,-7,0,0,0,0,0
4.442,-7.125,0,0,0,0,0
4.443,-7.625,0,0,0,0,0
4.444,-7.0625,0,0,0,0,0
4.445,-7.1875,0,0,0,0,0
4.446,-7,0,0,0,1,0
4.447,-6.875,0,0,0,0,0
4.448,-7.25,0,0,0,0,0
4.449,-7.9375,0,0,0,0,0
4.45,-8.0625,0,0,0,0,0
4.451,-8.125,0,0,0,0,0
4.452,-7.4375,0,0,0,0,0
4.453,-6.875,0,0,0,0,0
4.454,-6.4375,0,0,0,0,0
4.455,-6.25,0,0,0,0,0
4.456,-6.125,0,0,0,0,0
4.457,-5.3125,0,0,0,0,0
4.458,-5.4375,0,0,0,0,0
4.459,-5.4375,0,0,0,0,0
4.46,-6.0625,0,0,0,0,0
4.461,-6.875,0,0,0,0,0
4.462,-6.75,0,0,0,0,0
4.463,-6.5625,0,0,0,0,0
4.464,-5.625,0,0,0,0,0
4.465,-4.6875,0,0,0,0,0
4.466,-5.5,0,0,0,0,0
4.467,-5,0,0,0,0,0
4.468,-4.5625,0,0,0,0,0
4.469,-4.375,0,0,0,0,0
4.47,-5.4375,0,0,0,0,0
4.471,-6.25,0,0,0,0,0
4.472,-5.9375,0,0,0,0,0
4.473,-5.9375,0,0,0,0,0
4.474,-6.3125,0,0,0,0,0
4.475,-7.1875,0,0,0,0,0
4.476,-7.375,0,0,0,0,0
4.477,-6.875,0,0,0,0,0
4.478,-5.625,0,0,0,0,0
4.479,-5.4375,0,0,0,0,0
4.48,-5.9375,0,0,0,0,0
4.481,-6.375,0,0,0,0,0
4.482,-5.9375,0,0,0,0,0
4.483,-5.9375,0,0,0,0,0
4.484,-5.75,0,0,0,0,0
4.485,-5.4375,0,0,0,0,0
4.486,-5.5625,0,0,0,0,0
4.487,-5.625,0,0,0,0,0
4.488,-5.3125,0,0,0,0,0
4.489,-5.625,0,0,0,0,0
4.49,-6.5,0,0,0,0,0
4.491,-6.5625,0,0,0,0,0
4.492,-6.5,0,0,0,0,0
4.493,-6.5625,0,0,0,0,0
4.494,-6,0,0,0,0,0
4.495,-5.9375,0,0,0,0,0
4.496,-6.375,0,0,0,0,0
4.497,-6.25,0,0,0,0,0
4.498,-5.625,0,0,0,0,0
4.499,-5.4375,0,0,0,0,0
4.5,-5.1875,0,0,0,0,0
4.501,-4.6875,0,0,0,0,0
4.502,-4.3125,0,0,0,0,0
4.503,-4.375,0,0,0,0,0
4.504,-3.9375,0,0,0,0,0
4.505,-4.0625,0,0,0,0,0
4.506,-3.875,0,0,0,0,0
4.507,-4.375,0,0,0,0,0
4.508,-4.375,0,0,0,0,0
4.509,-4.1875,0,0,0,0,0
4.51,-4.375,0,0,0,0,0
4.511,-4.375,0,0,0,0,0
4.512,-4.25,0,0,0,0,0
4.513,-3.4375,0,0,0,0,0
4.514,-3.1875,0,0,0,0,0
4.515,-2.9375,0,0,0,0,0
4.516,-2.8125,0,0,0,0,0
4.517,-2.5,0,0,0,0,0
4.518,-2.625,0,0,0,0,0
4.519,-2.9375,0,0,0,0,0
4.52,-4.1875,0,0,0,0,0
4.521,-5.125,0,0,0,0,0
4.522,-5.3125,0,0,0,0,0
4.523,-5.3125,0,0,0,0,0
4.524,-5.25,0,0,0,0,0
4.525,-5.3125,0,0,0,0,0
4.526,-5.3125,0,0,0,0,0
4.527,-5,0,0,0,0,0
4.528,-4.6875,0,0,0,0,0
4.529,-4.6875,0,0,0,0,0
4.53,-4.1875,0,0,0,0,0
4.531,-4.375,0,0,0,0,0
4.532,-4.8125,0,0,0,0,0
4.533,-5,0,0,0,0,0
4.534,-4.4375,0,0,0,0,0
4.535,-3.5625,0,0,0,0,0
4.536,-2.8125,0,0,0,0,0
4.537,-1.6875,0,0,0,0,0
4.538,-2.9375,0,0,0,0,0
4.539,-4.375,0,0,0,0,0
4.54,-4.0625,0,0,0,0,0
4.541,-3.75,0,0,0,0,0
4.542,-4.375,0,0,0,0,0
4.543,-5.125,0,0,0,0,0
4.544,-4.4375,0,0,0,0,0
4.545,-5.125,0,0,0,0,0
4.546,-5.9375,0,0,0,0,0
4.547,-5.75,0,0,0,0,0
4.548,-5.0625,0,0,0,0,0
4.549,-5,0,0,0,0,0
4.55,-5.0625,0,0,0,0,0
4.551,-5.625,0,0,0,0,0
4.552,-5,0,0,0,0,0
4.553,-4.5,0,0,0,0,0
4.554,-3.6875,0,0,0,0,0
4.555,-4.1875,0,0,0,0,0
4.556,-4.6875,0,0,0,0,0
4.557,-4.6875,0,0,0,0,0
4.558,-4.3125,0,0,0,0,0
4.559,-4.6875,0,0,0,0,0
4.56,-4.1875,0,0,0,0,0
4.561,-4.6875,0,0,0,0,0
4.562,-4.75,0,0,0,0,0
4.563,-5,0,0,0,0,0
4.564,-4.6875,0,0,0,0,0
4.565,-4.5,0,0,0,0,0
4.566,-4.375,0,0,0,0,0
4.567,-4.375,0,0,0,0,0
4.568,-4.625,0,0,0,0,0
4.569,-4.5,0,0,0,0,0
4.57,-4.375,0,0,0,0,0
4.571,-3.75,0,0,0,0,0
4.572,-4.125,0,0,0,0,0
4.573,-4.1875,0,0,0,0,0
4.574,-3.8125,0,0,0,0,0
4.575,-3.75,0,0,0,0,0
4.576,-4.1875,0,0,0,0,0
4.577,-4.8125,0,0,0,0,0
4.578,-5,0,0,0,0,1
4.579,-5,0,0,0,0,0
4.58,-5,0,0,0,0,0
4.581,-5.3125,0,0,0,0,0
4.582,-5.6875,0,0,0,0,0
4.583,-5.9375,0,0,0,0,0
4.584,-5.5625,0,0,0,0,0
4.585,-4.6875,0,0,0,0,0
4.586,-4,0,0,0,0,0
4.587,-3.4375,0,0,0,0,0
4.588,-2.9375,0,0,0,0,0
4.589,-2.9375,0,0,0,0,0
4.59,-3.25,0,0,0,0,0
4.591,-3.25,0,0,0,0,0
4.592,-3.1875,0,0,0,0,0
4.593,-3.5625,0,0,0,0,0
4.594,-3.875,0,0,0,0,0
4.595,-4.0625,0,0,0,0,0
4.596,-3.5625,0,0,0,0,0
4.597,-4.0625,0,0,0,0,0
4.598,-3.625,0,0,0,0,0
4.599,-3.5625,0,0,0,0,0
4.6,-3.9375,0,0,0,0,0
4.601,-4.0625,0,0,0,0,0
4.602,-3.9375,0,0,0,0,0
4.603,-4.0625,0,0,0,0,0
4.604,-3.625,0,0,0,0,0
4.605,-3.125,0,0,0,0,0
4.606,-3.5625,0,0,0,0,0
4.607,-4.1875,0,0,0,0,0
4.608,-3.5625,0,0,0,0,0
4.609,-3.875,0,0,0,0,0
4.61,-3.8125,0,0,0,0,0
4.611,-3.5625,0,0,0,0,0
4.612,-3.4375,0,0,0,0,0
4.613,-4.0625,0,0,0,0,0
4.614,-4.375,0,0,0,0,0
4.615,-4.375,0,0,0,0,0
4.616,-4.5625,0,0,0,0,0
4.617,-4.6875,0,0,0,0,0
4.618,-4.625,0,0,0,0,0
4.619,-4.8125,0,0,0,0,0
4.62,-5,0,0,0,0,0
4.621,-4.375,0,0,0,0,0
4.622,-2.75,0,0,0,0,0
4.623,-2.1875,0,0,0,0,0
4.624,-1.9375,0,0,0,0,0
4.625,-1.6875,0,0,0,0,0
4.626,-2.875,0,0,0,0,0
4.627,-3.75,0,0,0,0,0
4.628,-4.125,0,0,0,0,0
4.629,-4.375,0,0,0,0,0
4.63,-3.75,0,0,0,0,0
4.631,-2.8125,0,0,0,0,0
4.632,-2.25,0,0,0,0,0
4.633,-1.5625,0,0,0,0,0
4.634,-1.5,0,0,0,0,0
4.635,-1.25,0,0,0,0,0
4.636,-1.75,0,0,0,0,0
4.637,-2.1875,0,0,0,0,0
4.638,-3.5625,0,0,0,0,0
4.639,-4.375,0,0,0,0,0
4.64,-4.5,0,0,0,0,0
4.641,-4.5,0,0,0,0,0
4.642,-4.8125,0,0,0,0,0
4.643,-5.125,0,0,0,0,0
4.644,-4.25,0,0,0,0,0
4.645,-3.75,0,0,0,0,0
4.646,-3.5625,0,0,0,0,0
4.647,-3.875,0,0,0,0,0
4.648,-3.625,0,0,0,0,0
4.649,-4.0625,0,0,0,0,0
4.65,-4.1875,0,0,0,0,0
4.651,-4.375,0,0,0,0,0
4.652,-4.625,0,0,0,0,0
4.653,-4.5,0,0,0,0,0
4.654,-4,0,0,0,0,0
4.655,-4.375,0,0,0,0,0
4.656,-4.75,0,0,0,0,0
4.657,-4.5,0,0,0,0,0
4.658,-4.3125,0,0,0,0,0
4.659,-3.5625,0,0,0,0,0
4.66,-3.5,0,0,0,0,0
4.661,-3.25,0,0,0,0,0
4.662,-4.375,0,0,0,0,0
4.663,-4.5,0,0,0,0,0
4.664,-4.5625,0,0,0,0,0
4.665,-4.1875,0,0,0,0,0
4.666,-4.375,0,0,0,0,0
4.667,-4.5,0,0,0,0,0
4.668,-4.3125,0,0,0,0,0
4.669,-4.6875,0,0,0,0,0
4.67,-4.25,0,0,0,0,0
4.671,-3.875,0,0,0,0,0
4.672,-3.5,0,0,0,0,0
4.673,-3.25,0,0,0,0,0
4.674,-2.9375,0,0,0,0,0
4.675,-2.8125,0,0,0,0,0
4.676,-3.625,0,0,0,0,0
4.677,-3.75,0,0,0,0,0
4.678,-3.375,0,0,0,0,0
4.679,-3.25,0,0,0,0,0
4.68,-3.8125,0,0,0,0,0
4.681,-4.0625,0,0,0,0,0
4.682,-4.875,0,0,0,0,0
4.683,-5.3125,0,0,0,0,0
4.684,-4.1875,0,0,0,0,0
4.685,-3.875,0,0,0,0,0
4.686,-3.625,0,0,0,0,0
4.687,-4.0625,0,0,0,0,0
4.688,-4.6875,0,0,0,0,0
4.689,-4.375,0,0,0,0,0
4.69,-3.6875,0,0,0,0,0
4.691,-3.4375,0,0,0,0,0
4.692,-4.125,0,0,0,0,0
4.693,-4.5,0,0,0,0,0
4.694,-4.1875,0,0,0,0,0
4.695,-4.5,0,0,0,0,0
4.696,-4.3125,0,0,0,0,0
4.697,-3.75,0,0,0,0,0
4.698,-3.1875,0,0,0,0,0
4.699,-2.5,0,0,0,0,0
4.7,-2.4375,0,0,0,0,0
4.701,-2.3125,0,0,0,0,0
4.702,-2,0,0,0,0,0
4.703,-2.625,0,0,0,0,0
4.704,-2.6875,0,0,0,0,0
4.705,-2.3125,0,0,0,0,0
4.706,-2.4375,0,0,0,0,0
4.707,-2.5,0,0,0,0,0
4.708,-2.6875,0,0,0,0,0
4.709,-2.625,0,0,0,0,0
4.71,-2.9375,0,0,0,0,0
4.711,-3.5625,0,0,0,0,0
4.712,-3.1875,0,0,0,0,0
4.713,-3.125,0,0,0,0,0
4.714,-2.875,0,0,0,0,0
4.715,-2.5,0,0,0,0,0
4.716,-2.125,0,0,0,0,0
4.717,-1.375,0,0,0,0,0
4.718,-1.9375,0,0,0,0,0
4.719,-2.5,0,0,0,0,0
4.72,-3.125,0,0,0,0,0
4.721,-3.875,0,0,0,0,0
4.722,-4.125,0,0,0,0,0
4.723,-3.875,0,0,0,0,0
4.724,-3.375,0,0,0,0,0
4.725,-2.625,0,0,0,0,0
4.726,-2.6875,0,0,0,0,0
4.727,-2.8125,0,0,0,0,0
4.728,-3.125,0,0,0,0,0
4.729,-3.125,0,0,0,0,0
4.73,-3.375,0,0,0,0,0
4.731,-3.875,0,0,0,0,0
4.732,-3.6875,0,0,0,0,0
4.733,-3.875,0,0,0,0,0
4.734,-3.875,0,0,0,0,0
4.735,-3.875,0,0,0,0,0
4.736,-4.25,0,0,0,0,0
4.737,-4.1875,0,0,0,0,0
4.738,-4.375,0,0,0,0,0
4.739,-4.1875,0,0,0,0,0
4.74,-3.75,0,0,0,0,0
4.741,-2.8125,0,0,0,0,0
4.742,-3.1875,0,0,0,0,0
4.743,-3.125,0,0,0,0,0
4.744,-3.4375,0,0,0,0,0
4.745,-3.4375,0,0,0,0,0
4.746,-3.375,0,0,0,0,0
4.747,-3.75,0,0,0,0,0
4.748,-3.5,0,0,0,0,0
4.749,-3.75,0,0,0,0,0
4.75,-3.125,0,0,0,0,0
4.751,-3.5625,0,0,0,0,0
4.752,-4.125,0,0,0,0,0
4.753,-4.375,0,0,0,0,0
4.754,-4.5,0,0,0,0,0
4.755,-4.5,0,0,0,0,0
4.756,-4.75,0,0,0,0,0
4.757,-4.5,0,0,0,0,0
4.758,-4.5625,0,0,0,0,0
4.759,-4.5,0,0,0,0,0
4.76,-5.3125,0,0,0,0,0
4.761,-5.75,0,0,0,0,0
4.762,-5.375,0,0,0,0,0
4.763,-5.4375,0,0,0,0,0
4.764,-5.625,0,0,0,0,0
4.765,-5.4375,0,0,0,0,0
4.766,-4.5625,0,0,0,0,0
4.767,-3.75,0,0,0,0,0
4.768,-3.3125,0,0,0,0,0
4.769,-3.5625,0,0,0,0,0
4.77,-3.125,0,0,0,0,0
4.771,-2.3125,0,0,0,0,0
4.772,-2.25,0,0,0,0,0
4.773,-2.1875,0,0,0,0,0
4.774,-2.0625,0,0,0,0,0
4.775,-2.3125,0,0,0,0,0
4.776,-2.6875,0,0,0,0,0
4.777,-2.625,0,0,0,0,0
4.778,-2.3125,0,0,0,0,0
4.779,-2.3125,0,0,0,0,0
4.78,-2.625,0,0,0,0,0
4.781,-2.625,0,0,0,0,0
4.782,-3,0,0,0,0,0
4.783,-3.5625,0,0,0,0,0
4.784,-2.875,0,0,0,0,0
4.785,-2.9375,0,0,0,0,0
4.786,-3.3125,0,0,0,0,0
4.787,-2.9375,0,0,0,0,0
4.788,-3.1875,0,0,0,0,0
4.789,-3.25,0,0,0,0,0
4.79,-3.375,0,0,0,0,0
4.791,-4.0625,0,0,0,0,0
4.792,-3.8125,0,0,0,0,0
4.793,-3.875,0,0,0,0,0
4.794,-3.5,0,0,0,0,0
4.795,-3.5625,0,0,0,0,0
4.796,-3.375,0,0,0,0,0
4.797,-2.5,0,0,0,0,0
4.798,-2.125,0,0,0,0,0
4.799,-1.875,0,0,0,0,0
4.8,-3.4375,0,0,0,0,0
4.801,-4.8125,0,0,0,0,0
4.802,-5.9375,0,0,0,0,0
4.803,-6.6875,0,0,0,0,0
4.804,-6.25,0,0,0,0,0
4.805,-5.625,0,0,0,0,0
4.806,-4.9375,0,0,0,0,0
4.807,-4.8125,0,0,0,0,0
4.808,-4.4375,0,0,0,0,0
4.809,-4.375,0,0,0,0,0
4.81,-4.125,0,0,0,0,0
4.811,-3.875,0,0,0,0,0
4.812,-4.0625,0,0,0,0,0
4.813,-4.1875,0,0,0,0,0
4.814,-3.4375,0,0,0,0,0
4.815,-2.5,0,0,0,0,0
4.816,-2.5625,0,0,0,0,0
4.817,-2.3125,0,0,0,0,0
4.818,-2.3125,0,0,0,0,0
4.819,-2.8125,0,0,0,0,0
4.82,-3.4375,0,0,0,0,0
4.821,-3.4375,0,0,0,0,0
4.822,-3.4375,0,0,0,0,0
4.823,-3.875,0,0,0,0,0
4.824,-3.5,0,0,0,0,0
4.825,-2.8125,0,0,0,0,0
4.826,-2.8125,0,0,0,0,0
4.827,-3.125,0,0,0,0,0
4.828,-3.0625,0,0,0,0,0
4.829,-3.125,0,0,0,0,0
4.83,-3.1875,0,0,0,0,0
4.831,-3.5625,0,0,0,0,0
4.832,-4,0,0,0,0,0
4.833,-3.75,0,0,0,0,0
4.834,-3.5,0,0,0,0,0
4.835,-3.5625,0,0,0,0,0
4.836,-3.1875,0,0,0,0,0
4.837,-2.8125,0,0,0,0,0
4.838,-2.1875,0,0,0,0,0
4.839,-1.875,0,0,0,0,0
4.84,-2.25,0,0,0,0,0
4.841,-2,0,0,0,0,0
4.842,-2.75,0,0,0,0,0
4.843,-2.625,0,0,0,0,0
4.844,-3.125,0,0,0,0,0
4.845,-3.125,0,0,0,0,0
4.846,-3.125,0,0,0,0,0
4.847,-3.4375,0,0,0,0,0
4.848,-3.5,0,0,0,0,0
4.849,-3.5625,0,0,0,0,0
4.85,-3.5625,0,0,0,0,0
4.851,-3.5625,0,0,0,0,0
4.852,-3.8125,0,0,0,0,0
4.853,-4.375,0,0,0,0,0
4.854,-3.9375,0,0,0,0,0
4.855,-3.5625,0,0,0,0,0
4.856,-4.25,0,0,0,0,0
4.857,-4.5,0,0,0,0,0
4.858,-4.9375,0,0,0,0,0
4.859,-4.5,0,0,0,0,0
4.86,-4.4375,0,0,0,0,0
4.861,-4.6875,0,0,0,0,0
4.862,-4.6875,0,0,0,0,0
4.863,-5.3125,0,0,0,0,0
4.864,-5,0,0,0,0,0
4.865,-4.6875,0,0,0,0,0
4.866,-4.3125,0,0,0,0,0
4.867,-3.4375,0,0,0,0,0
4.868,-2.9375,0,0,0,0,0
4.869,-2.625,0,0,0,0,0
4.87,-2.75,0,0,0,0,0
4.871,-2.8125,0,0,0,0,0
4.872,-2.375,0,0,0,0,0
4.873,-2.5,0,0,0,0,0
4.874,-2.875,0,0,0,0,0
4.875,-3.125,0,0,0,0,0
4.876,-3.375,0,0,0,0,0
4.877,-4.1875,0,0,0,0,0
4.878,-3.8125,0,0,0,0,0
4.879,-3.75,0,0,0,0,0
4.88,-3.625,0,0,0,0,0
4.881,-3.75,0,0,0,0,0
4.882,-4.1875,0,0,0,0,0
4.883,-4.5,0,0,0,0,0
4.884,-4.8125,0,0,0,0,0
4.885,-4.8125,0,0,0,0,0
4.886,-3.5,0,0,0,0,0
4.887,-2.625,0,0,0,0,0
4.888,-2.8125,0,0,0,0,0
4.889,-2.625,0,0,0,0,0
4.89,-3,0,0,0,0,0
4.891,-4.0625,0,0,0,0,0
4.892,-4.125,0,0,0,0,0
4.893,-4.1875,0,0,0,0,0
4.894,-3.9375,0,0,0,0,0
4.895,-3.875,0,0,0,0,0
4.896,-4.375,0,0,0,0,0
4.897,-4.0625,0,0,0,0,0
4.898,-4.4375,0,0,0,0,0
4.899,-4.375,0,0,0,0,0
4.9,-3.75,0,0,0,0,0
4.901,-3.5625,0,0,0,0,0
4.902,-4.25,0,0,0,0,0
4.903,-4.375,0,0,0,0,0
4.904,-4.75,0,0,0,0,0
4.905,-4.375,0,0,0,0,0
4.906,-4.75,0,0,0,0,0
4.907,-5.4375,0,0,0,0,0
4.908,-5.9375,0,0,0,0,0
4.909,-6.0625,0,0,0,0,0
4.91,-5.875,0,0,0,0,0
4.911,-6.25,0,0,0,0,0
4.912,-6.4375,0,0,0,0,0
4.913,-6.0625,0,0,0,0,0
4.914,-4.875,0,0,0,0,0
4.915,-4.5,0,0,0,0,0
4.916,-4.0625,0,0,0,0,0
4.917,-3.125,0,0,0,0,0
4.918,-3.75,0,0,0,0,0
4.919,-4.5,0,0,0,0,0
4.92,-4.875,0,0,0,0,0
4.921,-5.125,0,0,0,0,0
4.922,-4.9375,0,0,0,0,0
4.923,-5.125,0,0,0,0,0
4.924,-5.6875,0,0,0,0,0
4.925,-5.3125,0,0,0,0,0
4.926,-5.25,0,0,0,0,0
4.927,-4.8125,0,0,0,0,0
4.928,-5.3125,0,0,0,0,0
4.929,-5.125,0,0,0,0,0
4.93,-5.125,0,0,0,0,0
4.931,-5,0,0,0,0,0
4.932,-4.5,0,0,0,0,0
4.933,-4.0625,0,0,0,0,0
4.934,-4.5,0,0,0,0,0
4.935,-5.125,0,0,0,0,0
4.936,-5.375,0,0,0,0,0
4.937,-5,0,0,0,0,0
4.938,-5.5,0,0,0,0,0
4.939,-6.5625,0,0,0,0,0
4.94,-6.75,0,0,0,0,0
4.941,-6.6875,0,0,0,0,0
4.942,-6.1875,0,0,0,0,0
4.943,-5.625,0,0,0,0,0
4.944,-5.375,0,0,0,0,0
4.945,-4.6875,0,0,0,0,0
4.946,-4.9375,0,0,0,0,0
4.947,-5.3125,0,0,0,0,0
4.948,-5.3125,0,0,0,0,0
4.949,-6.25,0,0,0,0,0
4.95,-6.75,0,0,0,0,0
4.951,-6.5625,0,0,0,0,0
4.952,-6.125,0,0,0,0,0
4.953,-6.375,0,0,0,0,0
4.954,-6.5625,0,0,0,0,0
4.955,-6.5625,0,0,0,0,0
4.956,-6.4375,0,0,0,0,0
4.957,-6.5625,0,0,0,0,0
4.958,-6.6875,0,0,0,0,0
4.959,-6.6875,0,0,0,0,0
4.96,-6.3125,0,0,0,0,0
4.961,-6.875,0,0,0,0,0
4.962,-7.3125,0,0,0,0,0
4.963,-7.625,0,0,0,0,0
4.964,-7.625,0,0,0,0,0
4.965,-7.9375,0,0,0,0,0
4.966,-7.5625,0,0,0,0,0
4.967,-7.625,0,0,0,0,0
4.968,-7.875,0,0,0,0,0
4.969,-7.625,0,0,0,0,0
4.97,-6.3125,0,0,0,0,0
4.971,-5.3125,0,0,0,0,0
4.972,-5,0,0,0,0,0
4.973,-5.125,0,0,0,0,0
4.974,-5.5,0,0,0,0,0
4.975,-5.625,0,0,0,0,0
4.976,-6.6875,0,0,0,0,0
4.977,-7.3125,0,0,0,0,0
4.978,-7.8125,0,0,0,0,0
4.979,-8.875,0,0,0,0,0
4.98,-8.9375,0,0,0,0,0
4.981,-8.4375,0,0,0,0,0
4.982,-7.125,0,0,0,0,0
4.983,-5.75,0,0,0,0,0
4.984,-5.3125,0,0,0,0,0
4.985,-4.5,0,0,0,0,0
4.986,-3.6875,0,0,0,0,0
4.987,-2.8125,0,0,0,0,0
4.988,-2.4375,0,0,0,0,0
4.989,-3.125,0,0,0,0,0
4.99,-4.1875,0,0,0,0,0
4.991,-5.3125,0,0,0,0,0
4.992,-5.0625,0,0,0,0,0
4.993,-4.6875,0,0,0,0,0
4.994,-4.5625,0,0,0,0,0
4.995,-4.6875,0,0,0,0,0
4.996,-4.75,0,0,0,0,0
4.997,-4.5,0,0,0,0,0
4.998,-5.3125,0,0,0,0,0
4.999,-5.75,0,0,0,0,0
5,-5.8125,0,0,0,0,0
5.001,-6.25,0,0,0,0,0
5.002,-6,0,0,0,0,0
5.003,-5.3125,0,0,0,0,0
5.004,-5.625,0,0,0,0,0
5.005,-5.4375,0,0,0,0,0
5.006,-4.6875,0,0,0,0,0
5.007,-4.6875,0,0,0,0,0
5.008,-4.5625,0,0,0,0,0
5.009,-4.6875,0,0,0,0,0
5.01,-4.375,0,0,0,0,0
5.011,-4.8125,0,0,0,0,0
5.012,-4.5625,0,0,0,0,0
5.013,-4.5,0,0,0,0,0
5.014,-4.4375,0,0,0,0,0
5.015,-4.1875,0,0,0,0,0
5.016,-3.9375,0,0,0,0,0
5.017,-3.25,0,0,0,0,0
5.018,-2.9375,0,0,0,0,0
5.019,-2.9375,0,0,0,0,0
5.02,-2.8125,0,0,0,0,0
5.021,-2.625,0,0,0,0,0
5.022,-1.9375,0,0,0,0,0
5.023,-2.1875,0,0,0,0,0
5.024,-2.25,0,0,0,0,0
5.025,-1.875,0,0,0,0,0
5.026,-1.9375,0,0,0,0,0
5.027,-2,0,0,0,0,0
5.028,-2.625,0,0,0,0,0
5.029,-2.9375,0,0,0,0,0
5.03,-2.6875,0,0,0,0,0
5.031,-2.8125,0,0,0,0,0
5.032,-2.5,0,0,0,0,0
5.033,-2.3125,0,0,0,0,0
5.034,-2.25,0,0,0,0,0
5.035,-2.9375,0,0,0,0,0
5.036,-3.375,0,0,0,0,0
5.037,-2.9375,0,0,0,0,0
5.038,-2.4375,0,0,0,0,0
5.039,-1.875,0,0,0,0,0
5.04,-2.5,0,0,0,0,0
5.041,-3.4375,0,0,0,0,0
5.042,-3.375,0,0,0,0,0
5.043,-3.125,0,0,0,0,0
5.044,-3.375,0,0,0,0,0
5.045,-2.8125,0,0,0,0,0
5.046,-2.625,0,0,0,0,0
5.047,-2.1875,0,0,0,0,0
5.048,-2.25,0,0,0,0,0
5.049,-2.3125,0,0,0,0,0
5.05,-1.625,0,0,0,0,0
5.051,-1.375,0,0,0,0,0
5.052,-1.875,0,0,0,0,0
5.053,-2.1875,0,0,0,0,0
5.054,-2,0,0,0,0,0
5.055,-2,0,0,0,0,0
5.056,-2.375,0,0,0,0,0
5.057,-2.625,0,0,0,0,0
5.058,-3,0,0,0,0,0
5.059,-3.5625,0,0,0,0,0
5.06,-4.4375,0,0,0,0,0
5.061,-4.6875,0,0,0,0,0
5.062,-3.8125,0,0,0,0,0
5.063,-3.25,0,0,0,0,0
5.064,-2.375,0,0,0,0,0
5.065,-1.0625,0,0,0,0,0
5.066,-2.125,0,0,0,0,0
5.067,-2.9375,0,0,0,0,0
5.068,-3.8125,0,0,0,0,0
5.069,-4.6875,0,0,0,0,0
5.07,-5.1875,0,0,0,0,0
5.071,-6.0625,0,0,0,0,0
5.072,-5,0,0,0,0,0
5.073,-4.5,0,0,0,0,0
5.074,-3.5625,0,0,0,0,0
5.075,-3.25,0,0,0,0,0
5.076,-2.75,0,0,0,0,0
5.077,-2.1875,0,0,0,0,0
5.078,-1.8125,0,0,0,0,0
5.079,-0.9375,0,0,0,0,0
5.08,-1.125,0,0,0,0,0
5.081,-1.5625,0,0,0,0,0
5.082,-1.625,0,0,0,0,0
5.083,-1.6875,0,0,0,0,0
5.084,-2.5625,0,0,0,0,0
5.085,-2.8125,0,0,0,0,0
5.086,-3.4375,0,0,0,0,0
5.087,-4.0625,0,0,0,0,0
5.088,-3.9375,0,0,0,0,0
5.089,-3.875,0,0,0,0,0
5.09,-3.6875,0,0,0,0,0
5.091,-3.5625,0,0,0,0,0
5.092,-3.875,0,0,0,0,0
5.093,-4.375,0,0,0,0,0
5.094,-4.5625,0,0,0,0,0
5.095,-4.8125,0,0,0,0,0
5.096,-4.8125,0,0,0,0,0
5.097,-5.625,0,0,0,0,0
5.098,-5.8125,0,0,0,0,0
5.099,-5.75,0,0,0,0,0
5.1,-5.5625,0,0,0,0,0
5.101,-6.0625,1,0,0,0,0
5.102,-5.1875,0,0,0,0,0
5.103,-5,0,0,0,0,0
5.104,-5.8125,0,0,0,0,0
5.105,-5.75,0,0,0,0,0
5.106,-6.5,0,0,0,0,0
5.107,-7.3125,0,0,0,0,0
5.108,-7.625,0,0,0,0,0
5.109,-8.125,0,0,0,0,0
5.11,-9.1875,0,0,0,0,0
5.111,-10.625,0,0,0,0,0
5.112,-12.063,0,0,0,0,0
5.113,-13.563,0,0,0,0,0
5.114,-14.438,0,0,0,0,0
5.115,-15.438,0,0,0,0,0
5.116,-16.25,0,0,0,0,0
5.117,-17.5,0,0,0,0,0
5.118,-18.313,0,0,0,0,0
5.119,-19.063,0,0,0,0,0
5.12,-19.5,0,0,0,0,0
5.121,-20.625,0,0,0,0,0
5.122,-21.938,0,0,0,0,0
5.123,-23.563,0,0,0,0,0
5.124,-24.313,0,0,0,0,0
5.125,-25.438,0,0,0,0,0
5.126,-29.563,0,0,0,0,0
5.127,-33.438,0,0,0,0,0
5.128,-35,0,0,0,0,0
5.129,-37.625,0,0,0,0,0
5.13,-39.563,0,0,0,0,0
5.131,-40.938,0,0,0,0,0
5.132,-41.938,0,0,0,0,0
5.133,-43.25,0,0,0,0,0
5.134,-44.688,0,0,0,0,0
5.135,-45.75,0,0,0,0,0
5.136,-47.375,0,0,0,0,0
5.137,-48.563,0,0,0,0,0
5.138,-49.438,0,0,0,0,0
5.139,-49.813,0,1,0,0,0
5.14,-50.438,0,0,0,0,0
5.141,-50.938,0,0,0,0,0
5.142,-50.938,0,0,0,0,0
5.143,-50.625,0,0,0,0,0
5.144,-49.813,0,0,0,0,0
5.145,-47.813,0,0,0,0,0
5.146,-45.313,0,0,0,0,0
5.147,-42.625,0,0,0,0,0
5.148,-40.625,0,0,0,0,0
5.149,-38.75,0,0,0,0,0
5.15,-36.5,0,0,0,0,0
5.151,-34.688,0,0,0,0,0
5.152,-31.875,0,0,0,0,0
5.153,-27.938,0,0,0,0,0
5.154,-23.813,0,0,0,0,0
5.155,-19.813,0,0,0,0,0
5.156,-16.5,0,0,0,0,0
5.157,-13.875,0,0,0,0,0
5.158,-11.75,0,0,0,0,0
5.159,-9.5,0,0,0,0,0
5.16,-7.5,0,0,0,0,0
5.161,-6.0625,0,0,0,0,0
5.162,-5.3125,0,0,0,0,0
5.163,-4.6875,0,0,0,0,0
5.164,-4.5,0,0,0,0,0
5.165,-3.875,0,0,0,0,0
5.166,-3,0,0,0,0,0
5.167,-2.9375,0,0,0,0,0
5.168,-3.1875,0,0,0,0,0
5.169,-3.25,0,0,0,0,0
5.17,-3.1875,0,0,0,0,0
5.171,-2.625,0,0,0,0,0
5.172,-1.8125,0,0,0,0,0
5.173,-1.6875,0,0,0,0,0
5.174,-2.5625,0,0,0,0,0
5.175,-3.25,0,0,0,0,0
5.176,-3.9375,0,0,0,0,0
5.177,-3.875,0,0,0,0,0
5.178,-4.5625,0,0,0,0,0
5.179,-4.6875,0,0,0,0,0
5.18,-4.5,0,0,0,0,0
5.181,-3.875,0,0,1,0,0
5.182,-2.1875,0,0,0,0,0
5.183,-1.25,0,0,0,0,0
5.184,-1,0,0,0,0,0
5.185,-0.3125,0,0,0,0,0
5.186,-0.6875,0,0,0,0,0
5.187,-1.375,0,0,0,0,0
5.188,-2.0625,0,0,0,0,0
5.189,-3.125,0,0,0,0,0
5.19,-2.875,0,0,0,0,0
5.191,-2.9375,0,0,0,0,0
5.192,-2.625,0,0,0,0,0
5.193,-2.5,0,0,0,0,0
5.194,-1.875,0,0,0,0,0
5.195,-1.6875,0,0,0,0,0
5.196,-1.75,0,0,0,0,0
5.197,-1.375,0,0,0,0,0
5.198,-2.1875,0,0,0,0,0
5.199,-2.1875,0,0,0,0,0
5.2,-1.6875,0,0,0,0,0
5.201,-1.375,0,0,0,0,0
5.202,-1.375,0,0,0,0,0
5.203,-1.5625,0,0,0,0,0
5.204,-1.8125,0,0,0,0,0
5.205,-1.6875,0,0,0,0,0
5.206,-1.5,0,0,0,0,0
5.207,-1.0625,0,0,0,0,0
5.208,-1.1875,0,0,0,0,0
5.209,-0.75,0,0,0,0,0
5.21,-1.375,0,0,0,0,0
5.211,-2,0,0,0,0,0
5.212,-1.6875,0,0,0,0,0
5.213,-2.1875,0,0,0,0,0
5.214,-2,0,0,0,0,0
5.215,-1.5625,0,0,0,0,0
5.216,-1.1875,0,0,0,0,0
5.217,-0.4375,0,0,0,0,0
5.218,-0.5625,0,0,0,0,0
5.219,-1.0625,0,0,0,0,0
5.22,-1.5,0,0,0,0,0
5.221,-1.375,0,0,0,0,0
5.222,-1.625,0,0,0,0,0
5.223,-1.5625,0,0,0,0,0
5.224,-1.5,0,0,0,0,0
5.225,-1.25,0,0,0,0,0
5.226,-0.6875,0,0,0,0,0
5.227,-0.125,0,0,0,0,0
5.228,-0.6875,0,0,0,0,0
5.229,-0.75,0,0,0,0,0
5.23,-1,0,0,0,0,0
5.231,-1.5625,0,0,0,0,0
5.232,-1.625,0,0,0,0,0
5.233,-2,0,0,0,0,0
5.234,-1.6875,0,0,0,0,0
5.235,-1.375,0,0,0,0,0
5.236,-1.625,0,0,0,0,0
5.237,-1.6875,0,0,0,0,0
5.238,-2.125,0,0,0,0,0
