0,2.5,0,0,0,0,0
0.001,3.125,0,0,0,0,0
0.002,3.4375,0,0,0,0,0
0.003,3.75,0,0,0,0,0
0.004,3.125,0,0,0,0,0
0.005,3.125,0,0,0,0,0
0.006,2.8125,0,0,0,0,0
0.007,3.125,0,0,0,0,0
0.008,3.4375,0,0,0,0,0
0.009,3.125,0,0,0,0,0
0.01,3.125,0,0,0,0,0
0.011,3.125,0,0,0,0,0
0.012,3.4375,0,0,0,0,0
0.013,3.75,0,0,0,0,0
0.014,4.0625,0,0,0,0,0
0.015,3.75,0,0,0,0,0
0.016,3.75,0,0,0,0,0
0.017,4.375,0,0,0,0,0
0.018,4.375,0,0,0,0,0
0.019,4.375,0,0,0,0,0
0.02,4.0625,0,0,0,0,0
0.021,3.75,0,0,0,0,0
0.022,3.75,0,0,0,0,0
0.023,3.75,0,0,0,0,0
0.024,3.75,0,0,0,0,0
0.025,3.75,0,0,0,0,0
0.026,3.75,0,0,0,0,0
0.027,3.75,0,0,0,0,0
0.028,3.75,0,0,0,0,0
0.029,3.75,0,0,0,0,0
0.03,4.0625,0,0,0,0,0
0.031,4.375,0,0,0,0,0
0.032,4.0625,0,0,0,0,0
0.033,3.75,0,0,0,0,0
0.034,3.75,0,0,0,0,0
0.035,3.75,0,0,0,0,0
0.036,4.375,0,0,0,0,0
0.037,3.75,0,0,0,0,0
0.038,4.0625,0,0,0,0,0
0.039,4.375,0,0,0,0,0
0.04,4.375,0,0,0,0,0
0.041,4.375,0,0,0,0,0
0.042,4.375,0,0,0,0,0
0.043,4.375,0,0,0,0,0
0.044,3.75,0,0,0,0,0
0.045,3.75,0,0,0,0,0
0.046,4.0625,0,0,0,0,0
0.047,4.375,0,0,0,0,0
0.048,4.0625,0,0,0,0,0
0.049,4.375,0,0,0,0,0
0.05,4.0625,0,0,0,0,0
0.051,3.75,0,0,0,0,0
0.052,3.75,0,0,0,0,0
0.053,3.75,0,0,0,0,0
0.054,3.75,0,0,0,0,0
0.055,3.75,0,0,0,0,0
0.056,3.4375,0,0,0,0,0
0.057,3.125,0,0,0,0,0
0.058,3.125,0,0,0,0,0
0.059,3.125,0,0,0,0,0
0.06,3.125,0,0,0,0,0
0.061,3.125,0,0,0,0,0
0.062,3.75,0,0,0,0,0
0.063,3.125,0,0,0,0,0
0.064,3.125,0,0,0,0,0
0.065,3.125,0,0,0,0,0
0.066,2.8125,0,0,0,0,0
0.067,2.5,0,0,0,0,0
0.068,2.8125,0,0,0,0,0
0.069,3.125,0,0,0,0,0
0.07,3.125,0,0,0,0,0
0.071,3.125,0,0,0,0,0
0.072,3.125,0,0,0,0,0
0.073,2.5,0,0,0,0,0
0.074,2.8125,0,0,0,0,0
0.075,2.5,0,0,0,0,0
0.076,2.8125,0,0,0,0,0
0.077,3.125,0,0,0,0,0
0.078,3.125,0,0,0,0,0
0.079,3.125,0,0,0,0,0
0.08,3.4375,0,0,0,0,0
0.081,3.75,0,0,0,0,0
0.082,4.0625,0,0,0,0,0
0.083,4.375,0,0,0,0,0
0.084,3.125,0,0,0,0,0
0.085,2.5,0,0,0,0,0
0.086,2.5,0,0,0,0,0
0.087,2.5,0,0,0,0,0
0.088,3.4375,0,0,0,0,0
0.089,3.125,0,0,0,0,0
0.09,2.8125,0,0,0,0,0
0.091,2.5,0,0,0,0,0
0.092,3.125,0,0,0,0,0
0.093,2.5,0,0,0,0,0
0.094,2.5,0,0,0,0,0
0.095,2.5,0,0,0,0,0
0.096,2.8125,0,0,0,0,0
0.097,3.125,0,0,0,0,0
0.098,2.8125,0,0,0,0,0
0.099,2.5,0,0,0,0,0
0.1,2.5,0,0,0,0,0
0.101,2.5,0,0,0,0,0
0.102,2.5,0,0,0,0,0
0.103,2.5,0,0,0,0,0
0.104,2.5,0,0,0,0,0
0.105,2.5,0,0,0,0,0
0.106,2.5,0,0,0,0,0
0.107,1.875,0,0,0,0,0
0.108,1.875,0,0,0,0,0
0.109,1.875,0,0,0,0,0
0.11,2.1875,0,0,0,0,0
0.111,2.5,0,0,0,0,0
0.112,2.1875,0,0,0,0,0
0.113,1.875,0,0,0,0,0
0.114,1.875,0,0,0,0,0
0.115,1.875,0,0,0,0,0
0.116,1.875,0,0,0,0,0
0.117,1.875,0,0,0,0,0
0.118,2.1875,0,0,0,0,0
0.119,1.875,0,0,0,0,0
0.12,2.1875,0,0,0,0,0
0.121,2.5,0,0,0,0,0
0.122,2.1875,0,0,0,0,0
0.123,1.875,0,0,0,0,0
0.124,2.5,0,0,0,0,0
0.125,2.5,0,0,0,0,0
0.126,2.5,0,0,0,0,0
0.127,2.5,0,0,0,0,0
0.128,2.5,0,0,0,0,0
0.129,2.5,0,0,0,0,0
0.13,2.8125,0,0,0,0,0
0.131,3.125,0,0,0,0,0
0.132,3.125,0,0,0,0,0
0.133,3.125,0,0,0,0,0
0.134,3.125,0,0,0,0,0
0.135,3.125,0,0,0,0,0
0.136,3.125,0,0,0,0,0
0.137,3.125,0,0,0,0,0
0.138,2.8125,0,0,0,0,0
0.139,2.5,0,0,0,0,0
0.14,2.5,0,0,0,0,0
0.141,2.5,0,0,0,0,0
0.142,2.5,0,0,0,0,0
0.143,2.5,0,0,0,0,0
0.144,3.125,0,0,0,0,0
0.145,3.125,0,0,0,0,0
0.146,3.75,0,0,0,0,0
0.147,3.75,0,0,0,0,0
0.148,3.4375,0,0,0,0,0
0.149,3.125,0,0,0,0,0
0.15,3.4375,0,0,0,0,0
0.151,3.125,0,0,0,0,0
0.152,3.4375,0,0,0,0,0
0.153,3.75,0,0,0,0,0
0.154,3.4375,0,0,0,0,0
0.155,3.75,0,0,0,0,0
0.156,3.75,0,0,0,0,0
0.157,3.75,0,0,0,0,0
0.158,3.75,0,0,0,0,0
0.159,3.75,0,0,0,0,0
0.16,4.375,0,0,0,0,0
0.161,3.75,0,0,0,0,0
0.162,4.0625,0,0,0,0,0
0.163,4.375,0,0,0,0,0
0.164,5,0,0,0,0,0
0.165,5,0,0,0,0,0
0.166,5.625,0,0,0,0,0
0.167,5.625,0,0,0,0,0
0.168,5.625,0,0,0,0,0
0.169,5,0,0,0,0,0
0.17,5,0,0,0,0,0
0.171,5,0,0,0,0,0
0.172,5.3125,0,0,0,0,0
0.173,5,0,0,0,0,0
0.174,5.3125,0,0,0,0,0
0.175,5.625,0,0,0,0,0
0.176,5.625,0,0,0,0,0
0.177,5.625,0,0,0,0,0
0.178,5.625,0,0,0,0,0
0.179,5.625,0,0,0,0,0
0.18,5.9375,0,0,0,0,0
0.181,5.625,0,0,0,0,0
0.182,5.3125,0,0,0,0,0
0.183,5.625,0,0,0,0,0
0.184,5.625,0,0,0,0,0
0.185,5.625,0,0,0,0,0
0.186,5.625,0,0,0,0,0
0.187,6.25,0,0,0,0,0
0.188,5.625,0,0,0,0,0
0.189,5.625,0,0,0,0,0
0.19,5.9375,0,0,0,0,0
0.191,6.25,0,0,0,0,0
0.192,6.25,0,0,0,0,0
0.193,6.25,0,0,0,0,0
0.194,5.9375,0,0,0,0,0
0.195,5.625,0,0,0,0,0
0.196,5.625,0,0,0,0,0
0.197,5.625,0,0,0,0,0
0.198,5,0,0,0,0,0
0.199,5,0,0,0,0,0
0.2,5,0,0,0,0,0
0.201,5,0,0,0,0,0
0.202,5.3125,0,0,0,0,0
0.203,5,0,0,0,0,0
0.204,4.6875,0,0,0,0,0
0.205,4.375,0,0,0,0,0
0.206,4.375,0,0,0,0,0
0.207,4.375,0,0,0,0,0
0.208,3.75,0,0,0,0,0
0.209,3.75,0,0,0,0,0
0.21,3.4375,0,0,0,0,0
0.211,3.125,0,0,0,0,0
0.212,3.75,0,0,0,0,0
0.213,3.75,0,0,0,0,0
0.214,3.4375,0,0,0,0,0
0.215,3.125,0,0,0,0,0
0.216,3.4375,0,0,0,0,0
0.217,3.75,0,0,0,0,0
0.218,2.8125,0,0,0,0,0
0.219,2.5,0,0,0,0,0
0.22,2.5,0,0,0,0,0
0.221,1.875,0,0,0,0,0
0.222,1.875,0,0,0,0,0
0.223,1.875,0,0,0,0,0
0.224,2.1875,0,0,0,0,0
0.225,2.5,0,0,0,0,0
0.226,2.5,0,0,0,0,0
0.227,2.5,0,0,0,0,0
0.228,2.5,0,0,0,0,0
0.229,2.5,0,0,0,0,0
0.23,2.1875,0,0,0,0,0
0.231,1.875,0,0,0,0,0
0.232,2.5,0,0,0,0,0
0.233,2.5,0,0,0,0,0
0.234,2.1875,0,0,0,0,0
0.235,1.875,0,0,0,0,0
0.236,2.1875,0,0,0,0,0
0.237,1.25,0,0,0,0,0
0.238,1.25,0,0,0,0,0
0.239,1.25,0,0,0,0,0
0.24,1.25,0,0,0,0,0
0.241,1.25,0,0,0,0,0
0.242,1.25,0,0,0,0,0
0.243,1.25,0,0,0,0,0
0.244,1.5625,0,0,0,0,0
0.245,1.875,0,0,0,0,0
0.246,2.1875,0,0,0,0,0
0.247,2.5,0,0,0,0,0
0.248,2.5,0,0,0,0,0
0.249,2.5,0,0,0,0,0
0.25,1.5625,0,0,0,0,0
0.251,0.625,0,0,0,0,0
0.252,0.625,0,0,0,0,0
0.253,0.625,0,0,0,0,0
0.254,0.9375,0,0,0,0,0
0.255,0.625,0,0,0,0,0
0.256,1.5625,0,0,0,0,0
0.257,1.25,0,0,0,0,0
0.258,1.875,0,0,0,0,0
0.259,1.25,0,0,0,0,0
0.26,1.25,0,0,0,0,0
0.261,1.25,0,0,0,0,0
0.262,1.25,0,0,0,0,0
0.263,1.25,0,0,0,0,0
0.264,1.5625,0,0,0,0,0
0.265,1.875,0,0,0,0,0
0.266,1.875,0,0,0,0,0
0.267,1.875,0,0,0,0,0
0.268,1.5625,0,0,0,0,0
0.269,1.25,0,0,0,0,0
0.27,1.5625,0,0,0,0,0
0.271,1.875,0,0,0,0,0
0.272,0.625,0,0,0,0,0
0.273,0.625,0,0,0,0,0
0.274,0.625,0,0,0,0,0
0.275,0.625,0,0,0,0,0
0.276,0.9375,0,0,0,0,0
0.277,1.25,0,0,0,0,0
0.278,1.25,0,0,0,0,0
0.279,1.25,0,0,0,0,0
0.28,1.25,0,0,0,0,0
0.281,1.25,0,0,0,0,0
0.282,1.25,0,0,0,0,0
0.283,1.25,0,0,0,0,0
0.284,1.25,0,0,0,0,0
0.285,1.25,0,0,0,0,0
0.286,1.25,0,0,0,0,0
0.287,1.25,0,0,0,0,0
0.288,1.25,0,0,0,0,0
0.289,1.25,0,0,0,0,0
0.29,1.25,0,0,0,0,0
0.291,1.25,0,0,0,0,0
0.292,1.25,0,0,0,0,0
0.293,1.25,0,0,0,0,0
0.294,1.25,0,0,0,0,0
0.295,1.25,0,0,0,0,0
0.296,1.25,0,0,0,0,0
0.297,0.625,0,0,0,0,0
0.298,0,0,0,0,0,0
0.299,0,0,0,0,0,0
0.3,0.3125,0,0,0,0,0
0.301,0.625,0,0,0,0,0
0.302,0.3125,0,0,0,0,0
0.303,0.625,0,0,0,0,0
0.304,0.3125,0,0,0,0,0
0.305,0,0,0,0,0,0
0.306,0.3125,0,0,0,0,0
0.307,0,0,0,0,0,0
0.308,-0.9375,0,0,0,0,0
0.309,-0.625,0,0,0,0,0
0.31,0,0,0,0,0,0
0.311,0,0,0,0,0,0
0.312,0.3125,0,0,0,0,0
0.313,0.625,0,0,0,0,0
0.314,0.3125,0,0,0,0,0
0.315,0,0,0,0,0,0
0.316,0,0,0,0,0,0
0.317,0,0,0,0,0,0
0.318,0.9375,0,0,0,0,0
0.319,0.625,0,0,0,0,0
0.32,0.3125,0,0,0,0,0
0.321,0,0,0,0,0,0
0.322,0.3125,0,0,0,0,0
0.323,0,0,0,0,0,0
0.324,0,0,0,0,0,0
0.325,0,0,0,0,0,0
0.326,0,0,0,0,0,0
0.327,0.625,1,0,0,0,0
0.328,0.3125,0,0,0,0,0
0.329,0.625,0,0,0,0,0
0.33,0,0,0,0,0,0
0.331,-0.625,0,0,0,0,0
0.332,0.9375,0,0,0,0,0
0.333,1.875,0,0,0,0,0
0.334,2.8125,0,0,0,0,0
0.335,4.375,0,0,0,0,0
0.336,5.625,0,0,0,0,0
0.337,6.25,0,0,0,0,0
0.338,7.1875,0,0,0,0,0
0.339,7.5,0,0,0,0,0
0.34,9.6875,0,0,0,0,0
0.341,10.625,0,0,0,0,0
0.342,12.5,0,0,0,0,0
0.343,13.125,0,0,0,0,0
0.344,14.063,0,0,0,0,0
0.345,14.375,0,0,0,0,0
0.346,15.938,0,0,0,0,0
0.347,16.875,0,0,0,0,0
0.348,18.125,0,1,0,0,0
0.349,20,0,0,0,0,0
0.35,22.5,0,0,0,0,0
0.351,25,0,0,0,0,0
0.352,27.5,0,0,0,0,0
0.353,30.625,0,0,0,0,0
0.354,32.813,0,0,0,0,0
0.355,34.375,0,0,0,0,0
0.356,35,0,0,0,0,0
0.357,35.625,0,0,0,0,0
0.358,35.938,0,0,0,0,0
0.359,35.625,0,0,0,0,0
0.36,34.688,0,0,0,0,0
0.361,33.125,0,0,0,0,0
0.362,32.5,0,0,0,0,0
0.363,31.25,0,0,0,0,0
0.364,29.688,0,0,0,0,0
0.365,27.5,0,0,0,0,0
0.366,25.313,0,0,0,0,0
0.367,23.75,0,0,0,0,0
0.368,21.563,0,0,0,0,0
0.369,18.75,0,0,0,0,0
0.37,15,0,0,0,0,0
0.371,11.25,0,0,0,0,0
0.372,7.1875,0,0,0,0,0
0.373,0.625,0,0,0,0,0
0.374,-6.875,0,0,0,0,0
0.375,-12.5,0,0,0,0,0
0.376,-17.188,0,0,0,0,0
0.377,-21.25,0,0,0,0,0
0.378,-24.375,0,0,0,0,0
0.379,-26.25,0,0,0,0,0
0.38,-27.188,0,0,0,0,0
0.381,-26.875,0,0,0,0,0
0.382,-26.875,0,0,0,0,0
0.383,-26.25,0,0,0,0,0
0.384,-23.438,0,0,0,0,0
0.385,-20.625,0,0,0,0,0
0.386,-19.375,0,0,0,0,0
0.387,-18.125,0,0,0,0,0
0.388,-18.125,0,0,0,0,0
0.389,-18.125,0,0,0,0,0
0.39,-16.875,0,0,0,0,0
0.391,-15.625,0,0,0,0,0
0.392,-14.688,0,0,0,0,0
0.393,-13.125,0,0,0,0,0
0.394,-10.938,0,0,0,0,0
0.395,-8.75,0,0,0,0,0
0.396,-8.125,0,0,0,0,0
0.397,-6.875,0,0,0,0,0
0.398,-5.3125,0,0,0,0,0
0.399,-4.375,0,0,0,0,0
0.4,-4.375,0,0,0,0,0
0.401,-4.375,0,0,0,0,0
0.402,-4.375,0,0,0,0,0
0.403,-3.75,0,0,0,0,0
0.404,-3.125,0,0,0,0,0
0.405,-3.125,0,0,0,0,0
0.406,-3.125,0,0,0,0,0
0.407,-3.125,0,0,0,0,0
0.408,-3.125,0,0,0,0,0
0.409,-3.125,0,0,0,0,0
0.41,-3.4375,0,0,0,0,0
0.411,-3.75,0,0,0,0,0
0.412,-4.0625,0,0,0,0,0
0.413,-4.375,0,0,0,0,0
0.414,-4.0625,0,0,0,0,0
0.415,-4.375,0,0,0,0,0
0.416,-3.75,0,0,0,0,0
0.417,-3.125,0,0,0,0,0
0.418,-3.4375,0,0,0,0,0
0.419,-3.125,0,0,0,0,0
0.42,-3.4375,0,0,0,0,0
0.421,-3.75,0,0,0,0,0
0.422,-3.4375,0,0,0,0,0
0.423,-3.125,0,0,0,0,0
0.424,-4.0625,0,0,0,0,0
0.425,-4.375,0,0,0,0,0
0.426,-4.6875,0,0,0,0,0
0.427,-4.375,0,0,0,0,0
0.428,-4.375,0,0,0,0,0
0.429,-4.375,0,0,0,0,0
0.43,-3.75,0,0,0,0,0
0.431,-3.75,0,0,0,0,0
0.432,-3.75,0,0,0,0,0
0.433,-4.375,0,0,0,0,0
0.434,-4.375,0,0,0,0,0
0.435,-4.375,0,0,0,0,0
0.436,-4.6875,0,0,0,0,0
0.437,-4.375,0,0,0,0,0
0.438,-5,0,0,0,0,0
0.439,-5,0,0,0,0,0
0.44,-5.3125,0,0,0,0,0
0.441,-5.625,0,0,0,0,0
0.442,-6.25,0,0,0,0,0
0.443,-6.25,0,0,0,0,0
0.444,-6.5625,0,0,0,0,0
0.445,-6.875,0,0,0,0,0
0.446,-6.25,0,0,0,0,0
0.447,-6.25,0,0,0,0,0
0.448,-5.9375,0,0,0,0,0
0.449,-5.625,0,0,0,0,0
0.45,-5.9375,0,0,0,0,0
0.451,-6.25,0,0,0,0,0
0.452,-5.9375,0,0,0,0,0
0.453,-5.625,0,0,0,0,0
0.454,-6.875,0,0,0,0,0
0.455,-6.875,0,0,0,0,0
0.456,-6.875,0,0,0,0,0
0.457,-6.25,0,0,0,0,0
0.458,-5.9375,0,0,0,0,0
0.459,-5.625,0,0,0,0,0
0.46,-5.625,0,0,0,0,0
0.461,-5.625,0,0,0,0,0
0.462,-5,0,0,0,0,0
0.463,-5,0,0,0,0,0
0.464,-5,0,0,0,0,0
0.465,-4.375,0,0,0,0,0
0.466,-4.6875,0,0,0,0,0
0.467,-4.375,0,0,0,0,0
0.468,-4.375,0,0,0,0,0
0.469,-4.375,0,0,0,0,0
0.47,-4.0625,0,0,0,0,0
0.471,-3.125,0,0,0,0,0
0.472,-2.1875,0,0,0,0,0
0.473,-2.5,0,0,0,0,0
0.474,-3.125,0,0,0,0,0
0.475,-3.125,0,0,0,0,0
0.476,-3.125,0,0,0,0,0
0.477,-3.125,0,0,0,0,0
0.478,-3.125,0,0,0,0,0
0.479,-3.125,0,0,0,0,0
0.48,-2.5,0,0,0,0,0
0.481,-2.5,0,0,0,0,0
0.482,-1.5625,0,0,0,0,0
0.483,-1.25,0,0,0,0,0
0.484,-1.25,0,0,0,0,0
0.485,-0.625,0,0,0,0,0
0.486,-0.3125,0,0,1,0,0
0.487,-0.625,0,0,0,0,0
0.488,-0.3125,0,0,0,0,0
0.489,0,0,0,0,0,0
0.49,0,0,0,0,0,0
0.491,0,0,0,0,0,0
0.492,0.3125,0,0,0,0,0
0.493,0.625,0,0,0,0,0
0.494,0.3125,0,0,0,0,0
0.495,0,0,0,0,0,0
0.496,-0.3125,0,0,0,0,0
0.497,-0.625,0,0,0,0,0
0.498,-0.625,0,0,0,0,0
0.499,-0.625,0,0,0,0,0
0.5,-0.625,0,0,0,0,0
0.501,-0.625,0,0,0,0,0
0.502,-0.3125,0,0,0,0,0
0.503,0,0,0,0,0,0
0.504,0,0,0,0,0,0
0.505,0,0,0,0,0,0
0.506,0.625,0,0,0,0,0
0.507,0,0,0,0,0,0
0.508,0,0,0,0,0,0
0.509,0,0,0,0,0,0
0.51,0,0,0,0,0,0
0.511,0,0,0,0,0,0
0.512,0,0,0,0,0,0
0.513,0,0,0,0,0,0
0.514,0,0,0,0,0,0
0.515,0,0,0,0,0,0
0.516,0.3125,0,0,0,0,0
0.517,0.625,0,0,0,0,0
0.518,0.625,0,0,0,0,0
0.519,0.625,0,0,0,0,0
0.52,-0.3125,0,0,0,0,0
0.521,0,0,0,0,0,0
0.522,-0.3125,0,0,0,0,0
0.523,0,0,0,0,0,0
0.524,-0.3125,0,0,0,0,0
0.525,-0.625,0,0,0,0,0
0.526,-0.3125,0,0,0,0,0
0.527,0,0,0,0,0,0
0.528,-0.3125,0,0,0,0,0
0.529,0,0,0,0,0,0
0.53,0.3125,0,0,0,0,0
0.531,0,0,0,0,0,0
0.532,-0.3125,0,0,0,0,0
0.533,-0.625,0,0,0,0,0
0.534,-0.625,0,0,0,0,0
0.535,-0.625,0,0,0,0,0
0.536,-0.625,0,0,0,0,0
0.537,-0.625,0,0,0,0,0
0.538,-0.9375,0,0,0,0,0
0.539,-0.625,0,0,0,0,0
0.54,-0.3125,0,0,0,0,0
0.541,-0.625,0,0,0,0,0
0.542,0.3125,0,0,0,0,0
0.543,0,0,0,0,0,0
0.544,0.3125,0,0,0,0,0
0.545,0,0,0,0,0,0
0.546,0.3125,0,0,0,0,0
0.547,0,0,0,0,0,0
0.548,0.625,0,0,0,0,0
0.549,0.625,0,0,0,0,0
0.55,0.9375,0,0,0,0,0
0.551,0.625,0,0,0,0,0
0.552,0.625,0,0,0,0,0
0.553,0.625,0,0,0,0,0
0.554,0.3125,0,0,0,0,0
0.555,0,0,0,0,0,0
0.556,0.3125,0,0,0,0,0
0.557,0.625,0,0,0,0,0
0.558,0.3125,0,0,0,0,0
0.559,0,0,0,0,0,0
0.56,0,0,0,0,0,0
0.561,0,0,0,0,0,0
0.562,-0.3125,0,0,0,0,0
0.563,-0.625,0,0,0,0,0
0.564,-0.625,0,0,0,0,0
0.565,-0.625,0,0,0,0,0
0.566,-0.9375,0,0,0,0,0
0.567,-1.25,0,0,0,0,0
0.568,-1.25,0,0,0,0,0
0.569,-1.25,0,0,0,0,0
0.57,-0.9375,0,0,0,0,0
0.571,-0.625,0,0,0,0,0
0.572,-1.25,0,0,0,0,0
0.573,-1.25,0,0,0,0,0
0.574,-0.9375,0,0,0,0,0
0.575,-0.625,0,0,0,0,0
0.576,-0.625,0,0,0,0,0
0.577,-0.625,0,0,0,0,0
0.578,-1.25,0,0,0,0,0
0.579,-1.25,0,0,0,0,0
0.58,-1.25,0,0,0,0,0
0.581,-1.25,0,0,0,0,0
0.582,-1.5625,0,0,0,0,0
0.583,-1.875,0,0,0,0,0
0.584,-1.875,0,0,0,0,0
0.585,-1.875,0,0,0,0,0
0.586,-2.5,0,0,0,0,0
0.587,-1.875,0,0,0,0,0
0.588,-1.5625,0,0,0,0,0
0.589,-1.875,0,0,0,0,0
0.59,-1.5625,0,0,0,0,0
0.591,-1.25,0,0,0,0,0
0.592,-1.25,0,0,0,0,0
0.593,-1.25,0,0,0,0,0
0.594,-1.25,0,0,0,0,0
0.595,-1.25,0,0,0,0,0
0.596,-2.1875,0,0,0,0,0
0.597,-2.5,0,0,0,0,0
0.598,-2.5,0,0,0,0,0
0.599,-2.5,0,0,0,0,0
0.6,-2.5,0,0,0,0,0
0.601,-2.5,0,0,0,0,0
0.602,-3.4375,0,0,0,0,0
0.603,-3.75,0,0,0,0,0
0.604,-4.0625,0,0,0,0,0
0.605,-4.375,0,0,0,0,0
0.606,-4.375,0,0,0,0,0
0.607,-5,0,0,0,0,0
0.608,-4.375,0,0,0,0,0
0.609,-4.375,0,0,0,0,0
0.61,-4.6875,0,0,0,0,0
0.611,-4.375,0,0,0,0,0
0.612,-4.6875,0,0,0,0,0
0.613,-4.375,0,0,0,0,0
0.614,-4.375,0,0,0,0,0
0.615,-4.375,0,0,0,0,0
0.616,-5.3125,0,0,0,0,0
0.617,-5.625,0,0,0,0,0
0.618,-5.3125,0,0,0,0,0
0.619,-5,0,0,0,0,0
0.62,-5.3125,0,0,0,0,0
0.621,-5.625,0,0,0,0,0
0.622,-5.625,0,0,0,0,0
0.623,-5.625,0,0,0,0,0
0.624,-5.3125,0,0,0,0,0
0.625,-5.625,0,0,0,0,0
0.626,-5.9375,0,0,0,0,0
0.627,-5.625,0,0,0,0,0
0.628,-6.5625,0,0,0,0,0
0.629,-6.875,0,0,0,0,0
0.63,-6.875,0,0,0,0,0
0.631,-6.875,0,0,0,0,0
0.632,-6.25,0,0,0,0,0
0.633,-5.625,0,0,0,0,0
0.634,-6.25,0,0,0,0,0
0.635,-6.25,0,0,0,0,0
0.636,-6.5625,0,0,0,0,0
0.637,-6.875,0,0,0,0,0
0.638,-6.875,0,0,0,0,0
0.639,-6.875,0,0,0,0,0
0.64,-6.875,0,0,0,0,0
0.641,-6.875,0,0,0,0,0
0.642,-7.1875,0,0,0,0,0
0.643,-7.5,0,0,0,0,0
0.644,-7.1875,0,0,0,1,0
0.645,-7.5,0,0,0,0,0
0.646,-7.1875,0,0,0,0,0
0.647,-6.875,0,0,0,0,0
0.648,-6.875,0,0,0,0,0
0.649,-6.875,0,0,0,0,0
0.65,-6.5625,0,0,0,0,0
0.651,-6.25,0,0,0,0,0
0.652,-6.25,0,0,0,0,0
0.653,-6.25,0,0,0,0,0
0.654,-6.875,0,0,0,0,0
0.655,-6.875,0,0,0,0,0
0.656,-6.875,0,0,0,0,0
0.657,-6.875,0,0,0,0,0
0.658,-6.875,0,0,0,0,0
0.659,-6.875,0,0,0,0,0
0.66,-6.875,0,0,0,0,0
0.661,-6.25,0,0,0,0,0
0.662,-6.25,0,0,0,0,0
0.663,-6.25,0,0,0,0,0
0.664,-6.5625,0,0,0,0,0
0.665,-6.25,0,0,0,0,0
0.666,-5.9375,0,0,0,0,0
0.667,-5.625,0,0,0,0,0
0.668,-5.3125,0,0,0,0,0
0.669,-5,0,0,0,0,0
0.67,-5,0,0,0,0,0
0.671,-5,0,0,0,0,0
0.672,-4.6875,0,0,0,0,0
0.673,-4.375,0,0,0,0,0
0.674,-3.75,0,0,0,0,0
0.675,-3.75,0,0,0,0,0
0.676,-3.125,0,0,0,0,0
0.677,-3.125,0,0,0,0,0
0.678,-3.125,0,0,0,0,0
0.679,-3.125,0,0,0,0,0
0.68,-2.5,0,0,0,0,0
0.681,-2.5,0,0,0,0,0
0.682,-2.1875,0,0,0,0,0
0.683,-2.5,0,0,0,0,0
0.684,-1.5625,0,0,0,0,0
0.685,-1.25,0,0,0,0,0
0.686,-0.625,0,0,0,0,0
0.687,0,0,0,0,0,0
0.688,0,0,0,0,0,0
0.689,-0.625,0,0,0,0,0
0.69,-0.9375,0,0,0,0,0
0.691,-0.625,0,0,0,0,0
0.692,-0.625,0,0,0,0,0
0.693,-0.625,0,0,0,0,0
0.694,-0.3125,0,0,0,0,0
0.695,-0.625,0,0,0,0,0
0.696,0.3125,0,0,0,0,0
0.697,0.625,0,0,0,0,0
0.698,0.9375,0,0,0,0,0
0.699,1.25,0,0,0,0,0
0.7,1.25,0,0,0,0,0
0.701,1.25,0,0,0,0,0
0.702,1.875,0,0,0,0,0
0.703,1.875,0,0,0,0,0
0.704,2.1875,0,0,0,0,0
0.705,2.5,0,0,0,0,0
0.706,2.1875,0,0,0,0,0
0.707,2.5,0,0,0,0,0
0.708,2.5,0,0,0,0,0
0.709,2.5,0,0,0,0,0
0.71,2.5,0,0,0,0,0
0.711,2.5,0,0,0,0,0
0.712,2.5,0,0,0,0,0
0.713,3.125,0,0,0,0,0
0.714,2.5,0,0,0,0,0
0.715,1.875,0,0,0,0,0
0.716,2.8125,0,0,0,0,0
0.717,3.125,0,0,0,0,0
0.718,2.5,0,0,0,0,0
0.719,2.5,0,0,0,0,0
0.72,2.8125,0,0,0,0,0
0.721,3.125,0,0,0,0,0
0.722,2.8125,0,0,0,0,0
0.723,2.5,0,0,0,0,0
0.724,2.5,0,0,0,0,0
0.725,2.5,0,0,0,0,0
0.726,2.5,0,0,0,0,0
0.727,2.5,0,0,0,0,0
0.728,3.125,0,0,0,0,0
0.729,3.125,0,0,0,0,0
0.73,2.8125,0,0,0,0,0
0.731,2.5,0,0,0,0,0
0.732,2.8125,0,0,0,0,0
0.733,3.125,0,0,0,0,0
0.734,4.0625,0,0,0,0,0
0.735,3.75,0,0,0,0,0
0.736,3.4375,0,0,0,0,0
0.737,3.125,0,0,0,0,0
0.738,2.8125,0,0,0,0,0
0.739,2.5,0,0,0,0,0
0.74,2.8125,0,0,0,0,0
0.741,3.125,0,0,0,0,0
0.742,2.8125,0,0,0,0,0
0.743,3.125,0,0,0,0,0
0.744,2.1875,0,0,0,0,0
0.745,1.875,0,0,0,0,1
0.746,2.1875,0,0,0,0,0
0.747,2.5,0,0,0,0,0
0.748,2.1875,0,0,0,0,0
0.749,2.5,0,0,0,0,0
0.75,2.5,0,0,0,0,0
0.751,1.875,0,0,0,0,0
0.752,1.875,0,0,0,0,0
0.753,1.875,0,0,0,0,0
0.754,1.5625,0,0,0,0,0
0.755,1.25,0,0,0,0,0
0.756,1.5625,0,0,0,0,0
0.757,1.875,0,0,0,0,0
0.758,1.5625,0,0,0,0,0
0.759,1.875,0,0,0,0,0
0.76,1.5625,0,0,0,0,0
0.761,1.25,0,0,0,0,0
0.762,0.9375,0,0,0,0,0
0.763,1.25,0,0,0,0,0
0.764,1.25,0,0,0,0,0
0.765,1.25,0,0,0,0,0
0.766,0.625,0,0,0,0,0
0.767,0.625,0,0,0,0,0
0.768,0.625,0,0,0,0,0
0.769,0.625,0,0,0,0,0
0.77,0.625,0,0,0,0,0
0.771,0.625,0,0,0,0,0
0.772,0.625,0,0,0,0,0
0.773,0.625,0,0,0,0,0
0.774,0.625,0,0,0,0,0
0.775,0.625,0,0,0,0,0
0.776,1.25,0,0,0,0,0
0.777,0.625,0,0,0,0,0
0.778,1.5625,0,0,0,0,0
0.779,1.25,0,0,0,0,0
0.78,0.9375,0,0,0,0,0
0.781,0.625,0,0,0,0,0
0.782,0.625,0,0,0,0,0
0.783,0.625,0,0,0,0,0
0.784,0.3125,0,0,0,0,0
0.785,0,0,0,0,0,0
0.786,0,0,0,0,0,0
0.787,0,0,0,0,0,0
0.788,0.3125,0,0,0,0,0
0.789,0.625,0,0,0,0,0
0.79,0.9375,0,0,0,0,0
0.791,1.25,0,0,0,0,0
0.792,0.9375,0,0,0,0,0
0.793,0.625,0,0,0,0,0
0.794,0.3125,0,0,0,0,0
0.795,0,0,0,0,0,0
0.796,0.625,0,0,0,0,0
0.797,0.625,0,0,0,0,0
0.798,0.3125,0,0,0,0,0
0.799,0.625,0,0,0,0,0
0.8,0.9375,0,0,0,0,0
0.801,0.625,0,0,0,0,0
0.802,0.625,0,0,0,0,0
0.803,0.625,0,0,0,0,0
0.804,0,0,0,0,0,0
0.805,0.625,0,0,0,0,0
0.806,0.3125,0,0,0,0,0
0.807,0,0,0,0,0,0
0.808,0,0,0,0,0,0
0.809,0.625,0,0,0,0,0
0.81,1.25,0,0,0,0,0
0.811,1.25,0,0,0,0,0
0.812,0.9375,0,0,0,0,0
0.813,0.625,0,0,0,0,0
0.814,0.3125,0,0,0,0,0
0.815,0,0,0,0,0,0
0.816,0.625,0,0,0,0,0
0.817,0,0,0,0,0,0
0.818,0.3125,0,0,0,0,0
0.819,0.625,0,0,0,0,0
0.82,0.625,0,0,0,0,0
0.821,0.625,0,0,0,0,0
0.822,0.625,0,0,0,0,0
0.823,0.625,0,0,0,0,0
0.824,0.625,0,0,0,0,0
0.825,0.625,0,0,0,0,0
0.826,0.9375,0,0,0,0,0
0.827,1.25,0,0,0,0,0
0.828,0.9375,0,0,0,0,0
0.829,1.25,0,0,0,0,0
0.83,1.5625,0,0,0,0,0
0.831,1.875,0,0,0,0,0
0.832,1.5625,0,0,0,0,0
0.833,1.875,0,0,0,0,0
0.834,1.875,0,0,0,0,0
0.835,1.875,0,0,0,0,0
0.836,1.875,0,0,0,0,0
0.837,1.875,0,0,0,0,0
0.838,1.5625,0,0,0,0,0
0.839,1.25,0,0,0,0,0
0.84,1.25,0,0,0,0,0
0.841,1.25,0,0,0,0,0
0.842,1.875,0,0,0,0,0
0.843,1.25,0,0,0,0,0
0.844,1.25,0,0,0,0,0
0.845,1.25,0,0,0,0,0
0.846,1.875,0,0,0,0,0
0.847,1.875,0,0,0,0,0
0.848,1.875,0,0,0,0,0
0.849,1.875,0,0,0,0,0
0.85,1.875,0,0,0,0,0
0.851,1.875,0,0,0,0,0
0.852,2.1875,0,0,0,0,0
0.853,2.5,0,0,0,0,0
0.854,1.875,0,0,0,0,0
0.855,2.5,0,0,0,0,0
0.856,2.8125,0,0,0,0,0
0.857,3.125,0,0,0,0,0
0.858,2.1875,0,0,0,0,0
0.859,1.875,0,0,0,0,0
0.86,1.875,0,0,0,0,0
0.861,1.875,0,0,0,0,0
0.862,1.5625,0,0,0,0,0
0.863,1.875,0,0,0,0,0
0.864,1.875,0,0,0,0,0
0.865,1.875,0,0,0,0,0
0.866,1.875,0,0,0,0,0
0.867,1.875,0,0,0,0,0
0.868,2.1875,0,0,0,0,0
0.869,1.875,0,0,0,0,0
0.87,1.875,0,0,0,0,0
0.871,1.875,0,0,0,0,0
0.872,2.1875,0,0,0,0,0
0.873,2.5,0,0,0,0,0
0.874,2.8125,0,0,0,0,0
0.875,1.875,0,0,0,0,0
0.876,2.8125,0,0,0,0,0
0.877,2.5,0,0,0,0,0
0.878,1.875,0,0,0,0,0
0.879,1.875,0,0,0,0,0
0.88,2.1875,0,0,0,0,0
0.881,2.5,0,0,0,0,0
0.882,1.875,0,0,0,0,0
0.883,1.875,0,0,0,0,0
0.884,1.875,0,0,0,0,0
0.885,1.875,0,0,0,0,0
0.886,1.5625,0,0,0,0,0
0.887,1.25,0,0,0,0,0
0.888,0.9375,0,0,0,0,0
0.889,0.625,0,0,0,0,0
0.89,0,0,0,0,0,0
0.891,0.625,0,0,0,0,0
0.892,0,0,0,0,0,0
0.893,0.625,0,0,0,0,0
0.894,0.3125,0,0,0,0,0
0.895,0,0,0,0,0,0
0.896,0.3125,0,0,0,0,0
0.897,0.625,0,0,0,0,0
0.898,0,0,0,0,0,0
0.899,0.625,0,0,0,0,0
0.9,0.9375,0,0,0,0,0
0.901,1.25,0,0,0,0,0
0.902,1.25,0,0,0,0,0
0.903,1.25,0,0,0,0,0
0.904,0.9375,0,0,0,0,0
0.905,0.625,0,0,0,0,0
0.906,1.25,0,0,0,0,0
0.907,1.25,0,0,0,0,0
0.908,1.5625,0,0,0,0,0
0.909,1.25,0,0,0,0,0
0.91,1.5625,0,0,0,0,0
0.911,1.25,0,0,0,0,0
0.912,1.25,0,0,0,0,0
0.913,1.25,0,0,0,0,0
0.914,0.9375,0,0,0,0,0
0.915,1.25,0,0,0,0,0
0.916,1.25,0,0,0,0,0
0.917,1.25,0,0,0,0,0
0.918,1.25,0,0,0,0,0
0.919,1.25,0,0,0,0,0
0.92,1.5625,0,0,0,0,0
0.921,1.875,0,0,0,0,0
0.922,1.5625,0,0,0,0,0
0.923,1.25,0,0,0,0,0
0.924,1.5625,0,0,0,0,0
0.925,1.875,0,0,0,0,0
0.926,1.875,0,0,0,0,0
0.927,1.875,0,0,0,0,0
0.928,1.875,0,0,0,0,0
0.929,1.875,0,0,0,0,0
0.93,1.5625,0,0,0,0,0
0.931,1.25,0,0,0,0,0
0.932,0.9375,0,0,0,0,0
0.933,1.25,0,0,0,0,0
0.934,1.5625,0,0,0,0,0
0.935,2.5,0,0,0,0,0
0.936,2.1875,0,0,0,0,0
0.937,1.875,0,0,0,0,0
0.938,1.5625,0,0,0,0,0
0.939,1.875,0,0,0,0,0
0.94,2.1875,0,0,0,0,0
0.941,2.5,0,0,0,0,0
0.942,2.8125,0,0,0,0,0
0.943,3.125,0,0,0,0,0
0.944,3.4375,0,0,0,0,0
0.945,3.125,0,0,0,0,0
0.946,3.125,0,0,0,0,0
0.947,3.125,0,0,0,0,0
0.948,2.5,0,0,0,0,0
0.949,2.5,0,0,0,0,0
0.95,2.1875,0,0,0,0,0
0.951,2.5,0,0,0,0,0
0.952,2.5,0,0,0,0,0
0.953,3.125,0,0,0,0,0
0.954,2.8125,0,0,0,0,0
0.955,3.125,0,0,0,0,0
0.956,3.125,0,0,0,0,0
0.957,3.125,0,0,0,0,0
0.958,3.125,0,0,0,0,0
0.959,3.75,0,0,0,0,0
0.96,3.4375,0,0,0,0,0
0.961,3.75,0,0,0,0,0
0.962,3.75,0,0,0,0,0
0.963,3.75,0,0,0,0,0
0.964,3.75,0,0,0,0,0
0.965,3.75,0,0,0,0,0
0.966,3.4375,0,0,0,0,0
0.967,3.125,0,0,0,0,0
0.968,3.4375,0,0,0,0,0
0.969,3.75,0,0,0,0,0
0.97,2.8125,0,0,0,0,0
0.971,2.5,0,0,0,0,0
0.972,3.125,0,0,0,0,0
0.973,3.125,0,0,0,0,0
0.974,3.125,0,0,0,0,0
0.975,3.125,0,0,0,0,0
0.976,4.0625,0,0,0,0,0
0.977,3.75,0,0,0,0,0
0.978,3.75,0,0,0,0,0
0.979,3.75,0,0,0,0,0
0.98,4.0625,0,0,0,0,0
0.981,4.375,0,0,0,0,0
0.982,4.0625,0,0,0,0,0
0.983,3.75,0,0,0,0,0
0.984,3.75,0,0,0,0,0
0.985,3.75,0,0,0,0,0
0.986,3.75,0,0,0,0,0
0.987,3.125,0,0,0,0,0
0.988,3.125,0,0,0,0,0
0.989,3.125,0,0,0,0,0
0.99,3.125,0,0,0,0,0
0.991,3.75,0,0,0,0,0
0.992,4.0625,0,0,0,0,0
0.993,3.75,0,0,0,0,0
0.994,3.4375,0,0,0,0,0
0.995,3.75,0,0,0,0,0
0.996,3.75,0,0,0,0,0
0.997,3.125,0,0,0,0,0
0.998,2.8125,0,0,0,0,0
0.999,2.5,0,0,0,0,0
1,2.8125,0,0,0,0,0
1.001,3.125,0,0,0,0,0
1.002,2.5,0,0,0,0,0
1.003,2.5,0,0,0,0,0
1.004,2.5,0,0,0,0,0
1.005,2.5,0,0,0,0,0
1.006,2.8125,0,0,0,0,0
1.007,2.5,0,0,0,0,0
1.008,2.5,0,0,0,0,0
1.009,2.5,0,0,0,0,0
1.01,1.875,0,0,0,0,0
1.011,1.875,0,0,0,0,0
1.012,1.875,0,0,0,0,0
1.013,1.875,0,0,0,0,0
1.014,1.25,0,0,0,0,0
1.015,0.625,0,0,0,0,0
1.016,0.3125,0,0,0,0,0
1.017,0,0,0,0,0,0
1.018,-0.3125,0,0,0,0,0
1.019,-0.625,0,0,0,0,0
1.02,-0.625,0,0,0,0,0
1.021,-0.625,0,0,0,0,0
1.022,-0.625,0,0,0,0,0
1.023,0,0,0,0,0,0
1.024,0,0,0,0,0,0
1.025,0.625,0,0,0,0,0
1.026,0.3125,0,0,0,0,0
1.027,0.625,0,0,0,0,0
1.028,0.9375,0,0,0,0,0
1.029,1.25,0,0,0,0,0
1.03,0.625,0,0,0,0,0
1.031,0,0,0,0,0,0
1.032,0,0,0,0,0,0
1.033,0,0,0,0,0,0
1.034,-0.3125,0,0,0,0,0
1.035,-0.625,0,0,0,0,0
1.036,-0.625,0,0,0,0,0
1.037,-0.625,0,0,0,0,0
1.038,-0.9375,0,0,0,0,0
1.039,-1.25,0,0,0,0,0
1.04,-0.9375,0,0,0,0,0
1.041,-0.625,0,0,0,0,0
1.042,-0.3125,0,0,0,0,0
1.043,0,0,0,0,0,0
1.044,-0.625,0,0,0,0,0
1.045,0,0,0,0,0,0
1.046,-0.9375,0,0,0,0,0
1.047,-0.625,0,0,0,0,0
1.048,-1.25,0,0,0,0,0
1.049,-1.25,0,0,0,0,0
1.05,-1.25,0,0,0,0,0
1.051,-1.25,0,0,0,0,0
1.052,-1.25,0,0,0,0,0
1.053,-1.25,0,0,0,0,0
1.054,-1.25,0,0,0,0,0
1.055,-1.25,0,0,0,0,0
1.056,-0.9375,0,0,0,0,0
1.057,-0.625,0,0,0,0,0
1.058,-0.625,0,0,0,0,0
1.059,-0.625,0,0,0,0,0
1.06,-0.3125,0,0,0,0,0
1.061,-0.625,0,0,0,0,0
1.062,-0.625,0,0,0,0,0
1.063,-1.25,0,0,0,0,0
1.064,-1.25,0,0,0,0,0
1.065,-1.25,0,0,0,0,0
1.066,-1.25,0,0,0,0,0
1.067,-1.25,0,0,0,0,0
1.068,-1.25,0,0,0,0,0
1.069,-1.25,0,0,0,0,0
1.07,-1.25,0,0,0,0,0
1.071,-1.25,0,0,0,0,0
1.072,-0.9375,0,0,0,0,0
1.073,-0.625,0,0,0,0,0
1.074,-0.9375,0,0,0,0,0
1.075,-1.25,0,0,0,0,0
1.076,-1.25,0,0,0,0,0
1.077,-1.25,0,0,0,0,0
1.078,-1.25,0,0,0,0,0
1.079,-1.25,0,0,0,0,0
1.08,-1.25,0,0,0,0,0
1.081,-1.25,0,0,0,0,0
1.082,-0.9375,0,0,0,0,0
1.083,-0.625,0,0,0,0,0
1.084,-0.3125,0,0,0,0,0
1.085,0,0,0,0,0,0
1.086,-0.625,0,0,0,0,0
1.087,-0.625,0,0,0,0,0
1.088,-0.3125,0,0,0,0,0
1.089,-0.625,0,0,0,0,0
1.09,-0.9375,0,0,0,0,0
1.091,-1.25,0,0,0,0,0
1.092,-0.625,0,0,0,0,0
1.093,-0.625,0,0,0,0,0
1.094,-1.25,0,0,0,0,0
1.095,-1.25,0,0,0,0,0
1.096,-0.625,0,0,0,0,0
1.097,-0.625,0,0,0,0,0
1.098,0,0,0,0,0,0
1.099,0,0,0,0,0,0
1.1,-0.3125,0,0,0,0,0
1.101,0,0,0,0,0,0
1.102,0,0,0,0,0,0
1.103,0,0,0,0,0,0
1.104,-0.3125,0,0,0,0,0
1.105,-0.625,0,0,0,0,0
1.106,-0.625,0,0,0,0,0
1.107,0,0,0,0,0,0
1.108,-0.625,0,0,0,0,0
1.109,-0.625,1,0,0,0,0
1.11,-0.3125,0,0,0,0,0
1.111,0,0,0,0,0,0
1.112,-0.625,0,0,0,0,0
1.113,-0.625,0,0,0,0,0
1.114,-0.9375,0,0,0,0,0
1.115,-1.25,0,0,0,0,0
1.116,-0.9375,0,0,0,0,0
1.117,-1.25,0,0,0,0,0
1.118,0,0,0,0,0,0
1.119,0.625,0,0,0,0,0
1.12,0.625,0,0,0,0,0
1.121,1.875,0,0,0,0,0
1.122,2.8125,0,0,0,0,0
1.123,4.375,0,0,0,0,0
1.124,5.625,0,0,0,0,0
1.125,6.25,0,0,0,0,0
1.126,6.875,0,0,0,0,0
1.127,7.5,0,0,0,0,0
1.128,7.8125,0,0,0,0,0
1.129,10,0,0,0,0,0
1.13,10.938,0,0,0,0,0
1.131,13.125,0,0,0,0,0
1.132,13.75,0,0,0,0,0
1.133,15,0,0,0,0,0
1.134,15.625,0,0,0,0,0
1.135,17.5,0,0,0,0,0
1.136,19.063,0,0,0,0,0
1.137,20.625,0,0,0,0,0
1.138,23.125,0,0,0,0,0
1.139,25.625,0,0,0,0,0
1.14,27.5,0,0,0,0,0
1.141,30,0,0,0,0,0
1.142,31.875,0,0,0,0,0
1.143,32.5,0,0,0,0,0
1.144,33.438,0,0,0,0,0
1.145,33.75,0,0,0,0,0
1.146,34.063,0,1,0,0,0
1.147,33.75,0,0,0,0,0
1.148,33.75,0,0,0,0,0
1.149,33.125,0,0,0,0,0
1.15,31.563,0,0,0,0,0
1.151,31.25,0,0,0,0,0
1.152,29.375,0,0,0,0,0
1.153,27.5,0,0,0,0,0
1.154,25.938,0,0,0,0,0
1.155,23.75,0,0,0,0,0
1.156,21.25,0,0,0,0,0
1.157,18.125,0,0,0,0,0
1.158,15,0,0,0,0,0
1.159,11.25,0,0,0,0,0
1.16,6.5625,0,0,0,0,0
1.161,1.25,0,0,0,0,0
1.162,-5,0,0,0,0,0
1.163,-11.875,0,0,0,0,0
1.164,-16.875,0,0,0,0,0
1.165,-20.625,0,0,0,0,0
1.166,-23.75,0,0,0,0,0
1.167,-25.625,0,0,0,0,0
1.168,-26.25,0,0,0,0,0
1.169,-26.25,0,0,0,0,0
1.17,-26.25,0,0,0,0,0
1.171,-26.25,0,0,0,0,0
1.172,-24.688,0,0,0,0,0
1.173,-21.875,0,0,0,0,0
1.174,-19.375,0,0,0,0,0
1.175,-18.125,0,0,0,0,0
1.176,-17.188,0,0,0,0,0
1.177,-16.875,0,0,0,0,0
1.178,-16.25,0,0,0,0,0
1.179,-15,0,0,0,0,0
1.18,-13.438,0,0,0,0,0
1.181,-12.5,0,0,0,0,0
1.182,-11.563,0,0,0,0,0
1.183,-10,0,0,0,0,0
1.184,-8.4375,0,0,0,0,0
1.185,-8.125,0,0,0,0,0
1.186,-6.875,0,0,0,0,0
1.187,-5.625,0,0,0,0,0
1.188,-5,0,0,0,0,0
1.189,-4.375,0,0,0,0,0
1.19,-3.75,0,0,0,0,0
1.191,-3.75,0,0,0,0,0
1.192,-2.8125,0,0,0,0,0
1.193,-2.5,0,0,0,0,0
1.194,-3.125,0,0,0,0,0
1.195,-3.125,0,0,0,0,0
1.196,-3.4375,0,0,0,0,0
1.197,-3.75,0,0,0,0,0
1.198,-3.4375,0,0,0,0,0
1.199,-3.125,0,0,0,0,0
1.2,-3.4375,0,0,0,0,0
1.201,-3.75,0,0,0,0,0
1.202,-4.0625,0,0,0,0,0
1.203,-3.75,0,0,0,0,0
1.204,-3.75,0,0,0,0,0
1.205,-3.75,0,0,0,0,0
1.206,-3.4375,0,0,0,0,0
1.207,-3.75,0,0,0,0,0
1.208,-3.75,0,0,0,0,0
1.209,-3.75,0,0,0,0,0
1.21,-4.0625,0,0,0,0,0
1.211,-4.375,0,0,0,0,0
1.212,-4.0625,0,0,0,0,0
1.213,-4.375,0,0,0,0,0
1.214,-3.75,0,0,0,0,0
1.215,-3.75,0,0,0,0,0
1.216,-4.0625,0,0,0,0,0
1.217,-4.375,0,0,0,0,0
1.218,-4.6875,0,0,0,0,0
1.219,-4.375,0,0,0,0,0
1.22,-4.0625,0,0,0,0,0
1.221,-3.75,0,0,0,0,0
1.222,-4.375,0,0,0,0,0
1.223,-4.375,0,0,0,0,0
1.224,-4.6875,0,0,0,0,0
1.225,-5.625,0,0,0,0,0
1.226,-5.3125,0,0,0,0,0
1.227,-5.625,0,0,0,0,0
1.228,-5.625,0,0,0,0,0
1.229,-5.625,0,0,0,0,0
1.23,-5.9375,0,0,0,0,0
1.231,-6.875,0,0,0,0,0
1.232,-6.875,0,0,0,0,0
1.233,-6.875,0,0,0,0,0
1.234,-7.1875,0,0,0,0,0
1.235,-6.875,0,0,0,0,0
1.236,-6.875,0,0,0,0,0
1.237,-6.875,0,0,0,0,0
1.238,-6.875,0,0,0,0,0
1.239,-6.875,0,0,0,0,0
1.24,-6.875,0,0,0,0,0
1.241,-6.875,0,0,0,0,0
1.242,-6.875,0,0,0,0,0
1.243,-7.5,0,0,0,0,0
1.244,-6.875,0,0,0,0,0
1.245,-6.875,0,0,0,0,0
1.246,-6.25,0,0,0,0,0
1.247,-6.25,0,0,0,0,0
1.248,-5.9375,0,0,0,0,0
1.249,-5.625,0,0,0,0,0
1.25,-5.9375,0,0,0,0,0
1.251,-5.625,0,0,0,0,0
1.252,-5.3125,0,0,0,0,0
1.253,-5,0,0,0,0,0
1.254,-4.375,0,0,0,0,0
1.255,-4.375,0,0,0,0,0
1.256,-3.75,0,0,0,0,0
1.257,-3.75,0,0,0,0,0
1.258,-3.75,0,0,0,0,0
1.259,-3.75,0,0,0,0,0
1.26,-3.125,0,0,0,0,0
1.261,-2.5,0,0,0,0,0
1.262,-3.125,0,0,0,0,0
1.263,-3.125,0,0,0,0,0
1.264,-2.5,0,0,0,0,0
1.265,-2.5,0,0,0,0,0
1.266,-2.5,0,0,0,0,0
1.267,-2.5,0,0,0,0,0
1.268,-2.5,0,0,0,0,0
1.269,-1.875,0,0,0,0,0
1.27,-2.1875,0,0,0,0,0
1.271,-1.875,0,0,0,0,0
1.272,-1.5625,0,0,0,0,0
1.273,-1.25,0,0,1,0,0
1.274,-0.625,0,0,0,0,0
1.275,0,0,0,0,0,0
1.276,0,0,0,0,0,0
1.277,0,0,0,0,0,0
1.278,-0.3125,0,0,0,0,0
1.279,-0.625,0,0,0,0,0
1.28,-0.3125,0,0,0,0,0
1.281,0,0,0,0,0,0
1.282,0,0,0,0,0,0
1.283,0,0,0,0,0,0
1.284,0,0,0,0,0,0
1.285,0,0,0,0,0,0
1.286,0,0,0,0,0,0
1.287,0,0,0,0,0,0
1.288,0,0,0,0,0,0
1.289,0,0,0,0,0,0
1.29,0,0,0,0,0,0
1.291,0,0,0,0,0,0
1.292,0,0,0,0,0,0
1.293,0,0,0,0,0,0
1.294,-0.3125,0,0,0,0,0
1.295,0,0,0,0,0,0
1.296,0,0,0,0,0,0
1.297,0.625,0,0,0,0,0
1.298,0.625,0,0,0,0,0
1.299,0.625,0,0,0,0,0
1.3,0.625,0,0,0,0,0
1.301,0.625,0,0,0,0,0
1.302,0.625,0,0,0,0,0
1.303,0.625,0,0,0,0,0
1.304,0.9375,0,0,0,0,0
1.305,1.25,0,0,0,0,0
1.306,1.25,0,0,0,0,0
1.307,1.25,0,0,0,0,0
1.308,1.25,0,0,0,0,0
1.309,0.625,0,0,0,0,0
1.31,1.25,0,0,0,0,0
1.311,0.625,0,0,0,0,0
1.312,0.9375,0,0,0,0,0
1.313,1.25,0,0,0,0,0
1.314,1.5625,0,0,0,0,0
1.315,1.875,0,0,0,0,0
1.316,1.5625,0,0,0,0,0
1.317,1.25,0,0,0,0,0
1.318,1.875,0,0,0,0,0
1.319,1.875,0,0,0,0,0
1.32,1.5625,0,0,0,0,0
1.321,1.875,0,0,0,0,0
1.322,1.875,0,0,0,0,0
1.323,1.875,0,0,0,0,0
1.324,1.5625,0,0,0,0,0
1.325,1.25,0,0,0,0,0
1.326,0.9375,0,0,0,0,0
1.327,0.625,0,0,0,0,0
1.328,0.9375,0,0,0,0,0
1.329,0.625,0,0,0,0,0
1.33,0.3125,0,0,0,0,0
1.331,1.25,0,0,0,0,0
1.332,0.625,0,0,0,0,0
1.333,1.25,0,0,0,0,0
1.334,1.5625,0,0,0,0,0
1.335,1.875,0,0,0,0,0
1.336,0.9375,0,0,0,0,0
1.337,1.25,0,0,0,0,0
1.338,1.25,0,0,0,0,0
1.339,1.25,0,0,0,0,0
1.34,0.9375,0,0,0,0,0
1.341,1.25,0,0,0,0,0
1.342,0.625,0,0,0,0,0
1.343,0,0,0,0,0,0
1.344,0.3125,0,0,0,0,0
1.345,0.625,0,0,0,0,0
1.346,0.3125,0,0,0,0,0
1.347,0,0,0,0,0,0
1.348,0.3125,0,0,0,0,0
1.349,0.625,0,0,0,0,0
1.35,0.3125,0,0,0,0,0
1.351,0,0,0,0,0,0
1.352,0,0,0,0,0,0
1.353,0,0,0,0,0,0
1.354,0,0,0,0,0,0
1.355,0,0,0,0,0,0
1.356,0,0,0,0,0,0
1.357,0,0,0,0,0,0
1.358,0.3125,0,0,0,0,0
1.359,0.625,0,0,0,0,0
1.36,0.9375,0,0,0,0,0
1.361,0.625,0,0,0,0,0
1.362,0.625,0,0,0,0,0
1.363,0.625,0,0,0,0,0
1.364,0.625,0,0,0,0,0
1.365,0.625,0,0,0,0,0
1.366,0.3125,0,0,0,0,0
1.367,-0.625,0,0,0,0,0
1.368,-0.625,0,0,0,0,0
1.369,-0.625,0,0,0,0,0
1.37,-0.625,0,0,0,0,0
1.371,-0.625,0,0,0,0,0
1.372,-0.3125,0,0,0,0,0
1.373,0,0,0,0,0,0
1.374,0,0,0,0,0,0
1.375,-0.625,0,0,0,0,0
1.376,-0.3125,0,0,0,0,0
1.377,-0.625,0,0,0,0,0
1.378,-1.5625,0,0,0,0,0
1.379,-1.875,0,0,0,0,0
1.38,-1.875,0,0,0,0,0
1.381,-1.875,0,0,0,0,0
1.382,-1.875,0,0,0,0,0
1.383,-1.875,0,0,0,0,0
1.384,-1.875,0,0,0,0,0
1.385,-2.5,0,0,0,0,0
1.386,-2.8125,0,0,0,0,0
1.387,-3.125,0,0,0,0,0
1.388,-3.125,0,0,0,0,0
1.389,-3.125,0,0,0,0,0
1.39,-2.8125,0,0,0,0,0
1.391,-3.125,0,0,0,0,0
1.392,-3.125,0,0,0,0,0
1.393,-3.125,0,0,0,0,0
1.394,-2.8125,0,0,0,0,0
1.395,-2.5,0,0,0,0,0
1.396,-2.8125,0,0,0,0,0
1.397,-2.5,0,0,0,0,0
1.398,-3.125,0,0,0,0,0
1.399,-3.125,0,0,0,0,0
1.4,-2.5,0,0,0,0,0
1.401,-3.125,0,0,0,0,0
1.402,-3.75,0,0,0,0,0
1.403,-4.375,0,0,0,0,0
1.404,-4.0625,0,0,0,0,0
1.405,-4.375,0,0,0,0,0
1.406,-4.375,0,0,0,0,0
1.407,-4.375,0,0,0,0,0
1.408,-4.375,0,0,0,0,0
1.409,-4.375,0,0,0,0,0
1.41,-4.375,0,0,0,0,0
1.411,-4.375,0,0,0,0,0
1.412,-4.375,0,0,0,0,0
1.413,-4.375,0,0,0,0,0
1.414,-5,0,0,0,0,0
1.415,-5,0,0,0,0,0
1.416,-4.375,0,0,0,0,0
1.417,-5,0,0,0,0,0
1.418,-5.3125,0,0,0,0,0
1.419,-5.625,0,0,0,0,0
1.42,-5.3125,0,0,0,0,0
1.421,-5,0,0,0,0,0
1.422,-4.6875,0,0,0,0,0
1.423,-5,0,0,0,0,0
1.424,-5.3125,0,0,0,0,0
1.425,-5.625,0,0,0,0,0
1.426,-5.9375,0,0,0,0,0
1.427,-6.25,0,0,0,0,0
1.428,-6.25,0,0,0,0,0
1.429,-6.25,0,0,0,0,0
1.43,-6.25,0,0,0,0,0
1.431,-6.25,0,0,0,0,0
1.432,-6.5625,0,0,0,0,0
1.433,-6.25,0,0,0,0,0
1.434,-6.5625,0,0,0,0,0
1.435,-6.875,0,0,0,0,0
1.436,-6.5625,0,0,0,0,0
1.437,-6.25,0,0,0,1,0
1.438,-6.5625,0,0,0,0,0
1.439,-6.875,0,0,0,0,0
1.44,-6.5625,0,0,0,0,0
1.441,-6.25,0,0,0,0,0
1.442,-6.25,0,0,0,0,0
1.443,-6.25,0,0,0,0,0
1.444,-5.625,0,0,0,0,0
1.445,-5.625,0,0,0,0,0
1.446,-5.625,0,0,0,0,0
1.447,-5.625,0,0,0,0,0
1.448,-5.625,0,0,0,0,0
1.449,-5.625,0,0,0,0,0
1.45,-4.6875,0,0,0,0,0
1.451,-4.375,0,0,0,0,0
1.452,-4.6875,0,0,0,0,0
1.453,-5,0,0,0,0,0
1.454,-4.375,0,0,0,0,0
1.455,-4.375,0,0,0,0,0
1.456,-4.375,0,0,0,0,0
1.457,-3.75,0,0,0,0,0
1.458,-3.125,0,0,0,0,0
1.459,-3.125,0,0,0,0,0
1.46,-3.125,0,0,0,0,0
1.461,-3.125,0,0,0,0,0
1.462,-3.4375,0,0,0,0,0
1.463,-3.125,0,0,0,0,0
1.464,-3.125,0,0,0,0,0
1.465,-2.5,0,0,0,0,0
1.466,-2.1875,0,0,0,0,0
1.467,-1.875,0,0,0,0,0
1.468,-1.875,0,0,0,0,0
1.469,-1.25,0,0,0,0,0
1.47,-1.25,0,0,0,0,0
1.471,-0.625,0,0,0,0,0
1.472,-0.625,0,0,0,0,0
1.473,0,0,0,0,0,0
1.474,0.3125,0,0,0,0,0
1.475,0.625,0,0,0,0,0
1.476,0.625,0,0,0,0,0
1.477,1.25,0,0,0,0,0
1.478,1.25,0,0,0,0,0
1.479,1.25,0,0,0,0,0
1.48,1.875,0,0,0,0,0
1.481,1.875,0,0,0,0,0
1.482,1.5625,0,0,0,0,0
1.483,1.875,0,0,0,0,0
1.484,1.5625,0,0,0,0,0
1.485,1.875,0,0,0,0,0
1.486,2.1875,0,0,0,0,0
1.487,2.5,0,0,0,0,0
1.488,2.8125,0,0,0,0,0
1.489,3.125,0,0,0,0,0
1.49,3.125,0,0,0,0,0
1.491,3.75,0,0,0,0,0
1.492,3.75,0,0,0,0,0
1.493,3.75,0,0,0,0,0
1.494,3.75,0,0,0,0,0
1.495,3.75,0,0,0,0,0
1.496,4.375,0,0,0,0,0
1.497,4.375,0,0,0,0,0
1.498,4.375,0,0,0,0,0
1.499,4.375,0,0,0,0,0
1.5,4.375,0,0,0,0,0
1.501,4.375,0,0,0,0,0
1.502,5,0,0,0,0,0
1.503,5,0,0,0,0,0
1.504,4.6875,0,0,0,0,0
1.505,5,0,0,0,0,0
1.506,5.625,0,0,0,0,0
1.507,5.625,0,0,0,0,0
1.508,5.625,0,0,0,0,0
1.509,5.625,0,0,0,0,0
1.51,5.625,0,0,0,0,0
1.511,5.625,0,0,0,0,0
1.512,5.9375,0,0,0,0,0
1.513,6.25,0,0,0,0,0
1.514,5.9375,0,0,0,0,0
1.515,5.625,0,0,0,0,0
1.516,5.625,0,0,0,0,0
1.517,5.625,0,0,0,0,0
1.518,5.3125,0,0,0,0,0
1.519,5.625,0,0,0,0,0
1.52,5.625,0,0,0,0,0
1.521,5.625,0,0,0,0,0
1.522,5.3125,0,0,0,0,0
1.523,5.625,0,0,0,0,0
1.524,5.3125,0,0,0,0,0
1.525,5.625,0,0,0,0,0
1.526,5.625,0,0,0,0,0
1.527,5.625,0,0,0,0,0
1.528,5.625,0,0,0,0,0
1.529,5.625,0,0,0,0,0
1.53,5.9375,0,0,0,0,0
1.531,5.625,0,0,0,0,0
1.532,5.3125,0,0,0,0,0
1.533,4.375,0,0,0,0,0
1.534,4.375,0,0,0,0,0
1.535,4.375,0,0,0,0,0
1.536,3.75,0,0,0,0,0
1.537,3.125,0,0,0,0,0
1.538,4.0625,0,0,0,0,1
1.539,4.375,0,0,0,0,0
1.54,3.75,0,0,0,0,0
1.541,3.75,0,0,0,0,0
1.542,3.75,0,0,0,0,0
1.543,3.75,0,0,0,0,0
1.544,3.75,0,0,0,0,0
1.545,3.75,0,0,0,0,0
1.546,4.0625,0,0,0,0,0
1.547,3.75,0,0,0,0,0
1.548,3.75,0,0,0,0,0
1.549,3.75,0,0,0,0,0
1.55,3.4375,0,0,0,0,0
1.551,3.125,0,0,0,0,0
1.552,3.4375,0,0,0,0,0
1.553,3.125,0,0,0,0,0
1.554,3.75,0,0,0,0,0
1.555,3.75,0,0,0,0,0
1.556,3.75,0,0,0,0,0
1.557,3.75,0,0,0,0,0
1.558,3.4375,0,0,0,0,0
1.559,3.125,0,0,0,0,0
1.56,3.125,0,0,0,0,0
1.561,3.125,0,0,0,0,0
1.562,3.4375,0,0,0,0,0
1.563,3.75,0,0,0,0,0
1.564,3.75,0,0,0,0,0
1.565,4.375,0,0,0,0,0
1.566,3.75,0,0,0,0,0
1.567,4.375,0,0,0,0,0
1.568,4.375,0,0,0,0,0
1.569,5,0,0,0,0,0
1.57,4.6875,0,0,0,0,0
1.571,4.375,0,0,0,0,0
1.572,4.6875,0,0,0,0,0
1.573,5,0,0,0,0,0
1.574,5,0,0,0,0,0
1.575,5,0,0,0,0,0
1.576,4.6875,0,0,0,0,0
1.577,4.375,0,0,0,0,0
1.578,4.375,0,0,0,0,0
1.579,4.375,0,0,0,0,0
1.58,4.375,0,0,0,0,0
1.581,4.375,0,0,0,0,0
1.582,4.375,0,0,0,0,0
1.583,4.375,0,0,0,0,0
1.584,4.375,0,0,0,0,0
1.585,5,0,0,0,0,0
1.586,5.3125,0,0,0,0,0
1.587,5,0,0,0,0,0
1.588,4.6875,0,0,0,0,0
1.589,5,0,0,0,0,0
1.59,5,0,0,0,0,0
1.591,5,0,0,0,0,0
1.592,5.3125,0,0,0,0,0
1.593,5,0,0,0,0,0
1.594,5.625,0,0,0,0,0
1.595,5.625,0,0,0,0,0
1.596,5.3125,0,0,0,0,0
1.597,5,0,0,0,0,0
1.598,5.625,0,0,0,0,0
1.599,5.625,0,0,0,0,0
1.6,5.3125,0,0,0,0,0
1.601,5.625,0,0,0,0,0
1.602,5.625,0,0,0,0,0
1.603,5.625,0,0,0,0,0
1.604,5.3125,0,0,0,0,0
1.605,5.625,0,0,0,0,0
1.606,5,0,0,0,0,0
1.607,5,0,0,0,0,0
1.608,4.6875,0,0,0,0,0
1.609,4.375,0,0,0,0,0
1.61,4.375,0,0,0,0,0
1.611,4.375,0,0,0,0,0
1.612,4.375,0,0,0,0,0
1.613,4.375,0,0,0,0,0
1.614,4.375,0,0,0,0,0
1.615,4.375,0,0,0,0,0
1.616,4.0625,0,0,0,0,0
1.617,3.75,0,0,0,0,0
1.618,4.6875,0,0,0,0,0
1.619,5,0,0,0,0,0
1.62,5.3125,0,0,0,0,0
1.621,5,0,0,0,0,0
1.622,5,0,0,0,0,0
1.623,5,0,0,0,0,0
1.624,5,0,0,0,0,0
1.625,5,0,0,0,0,0
1.626,5,0,0,0,0,0
1.627,5,0,0,0,0,0
1.628,4.6875,0,0,0,0,0
1.629,4.375,0,0,0,0,0
1.63,4.375,0,0,0,0,0
1.631,5,0,0,0,0,0
1.632,4.6875,0,0,0,0,0
1.633,5,0,0,0,0,0
1.634,4.6875,0,0,0,0,0
1.635,5,0,0,0,0,0
1.636,5,0,0,0,0,0
1.637,5,0,0,0,0,0
1.638,5,0,0,0,0,0
1.639,5,0,0,0,0,0
1.64,4.6875,0,0,0,0,0
1.641,4.375,0,0,0,0,0
1.642,4.375,0,0,0,0,0
1.643,3.75,0,0,0,0,0
1.644,4.375,0,0,0,0,0
1.645,4.375,0,0,0,0,0
1.646,4.375,0,0,0,0,0
1.647,3.75,0,0,0,0,0
1.648,3.75,0,0,0,0,0
1.649,3.75,0,0,0,0,0
1.65,3.4375,0,0,0,0,0
1.651,3.125,0,0,0,0,0
1.652,3.75,0,0,0,0,0
1.653,3.75,0,0,0,0,0
1.654,4.0625,0,0,0,0,0
1.655,4.375,0,0,0,0,0
1.656,4.375,0,0,0,0,0
1.657,4.375,0,0,0,0,0
1.658,4.0625,0,0,0,0,0
1.659,4.375,0,0,0,0,0
1.66,4.0625,0,0,0,0,0
1.661,3.75,0,0,0,0,0
1.662,3.75,0,0,0,0,0
1.663,4.375,0,0,0,0,0
1.664,3.75,0,0,0,0,0
1.665,4.375,0,0,0,0,0
1.666,3.75,0,0,0,0,0
1.667,3.75,0,0,0,0,0
1.668,4.0625,0,0,0,0,0
1.669,3.75,0,0,0,0,0
1.67,4.0625,0,0,0,0,0
1.671,3.75,0,0,0,0,0
1.672,3.75,0,0,0,0,0
1.673,3.75,0,0,0,0,0
1.674,4.0625,0,0,0,0,0
1.675,4.375,0,0,0,0,0
1.676,4.375,0,0,0,0,0
1.677,4.375,0,0,0,0,0
1.678,4.6875,0,0,0,0,0
1.679,4.375,0,0,0,0,0
1.68,5,0,0,0,0,0
1.681,4.375,0,0,0,0,0
1.682,4.375,0,0,0,0,0
1.683,3.75,0,0,0,0,0
1.684,4.0625,0,0,0,0,0
1.685,4.375,0,0,0,0,0
1.686,4.0625,0,0,0,0,0
1.687,3.125,0,0,0,0,0
1.688,3.75,0,0,0,0,0
1.689,3.75,0,0,0,0,0
1.69,3.75,0,0,0,0,0
1.691,3.75,0,0,0,0,0
1.692,3.75,0,0,0,0,0
1.693,3.75,0,0,0,0,0
1.694,3.75,0,0,0,0,0
1.695,3.75,0,0,0,0,0
1.696,2.8125,0,0,0,0,0
1.697,3.125,0,0,0,0,0
1.698,3.4375,0,0,0,0,0
1.699,3.75,0,0,0,0,0
1.7,3.125,0,0,0,0,0
1.701,3.125,0,0,0,0,0
1.702,4.0625,0,0,0,0,0
1.703,4.375,0,0,0,0,0
1.704,3.75,0,0,0,0,0
1.705,3.75,0,0,0,0,0
1.706,4.0625,0,0,0,0,0
1.707,3.75,0,0,0,0,0
1.708,3.75,0,0,0,0,0
1.709,3.125,0,0,0,0,0
1.71,3.4375,0,0,0,0,0
1.711,3.75,0,0,0,0,0
1.712,3.75,0,0,0,0,0
1.713,3.75,0,0,0,0,0
1.714,3.4375,0,0,0,0,0
1.715,3.125,0,0,0,0,0
1.716,3.125,0,0,0,0,0
1.717,3.125,0,0,0,0,0
1.718,3.4375,0,0,0,0,0
1.719,3.75,0,0,0,0,0
1.72,3.75,0,0,0,0,0
1.721,3.75,0,0,0,0,0
1.722,3.75,0,0,0,0,0
1.723,3.75,0,0,0,0,0
1.724,3.75,0,0,0,0,0
1.725,3.75,0,0,0,0,0
1.726,3.75,0,0,0,0,0
1.727,3.75,0,0,0,0,0
1.728,4.0625,0,0,0,0,0
1.729,3.75,0,0,0,0,0
1.73,4.375,0,0,0,0,0
1.731,4.375,0,0,0,0,0
1.732,4.375,0,0,0,0,0
1.733,4.375,0,0,0,0,0
1.734,4.6875,0,0,0,0,0
1.735,4.375,0,0,0,0,0
1.736,4.6875,0,0,0,0,0
1.737,5,0,0,0,0,0
1.738,4.6875,0,0,0,0,0
1.739,5,0,0,0,0,0
1.74,5,0,0,0,0,0
1.741,5,0,0,0,0,0
1.742,5.3125,0,0,0,0,0
1.743,5.625,0,0,0,0,0
1.744,6.25,0,0,0,0,0
1.745,5.625,0,0,0,0,0
1.746,5.625,0,0,0,0,0
1.747,5.625,0,0,0,0,0
1.748,6.5625,0,0,0,0,0
1.749,6.875,0,0,0,0,0
1.75,7.1875,0,0,0,0,0
1.751,6.875,0,0,0,0,0
1.752,7.5,0,0,0,0,0
1.753,7.5,0,0,0,0,0
1.754,6.875,0,0,0,0,0
1.755,6.25,0,0,0,0,0
1.756,6.5625,0,0,0,0,0
1.757,6.25,0,0,0,0,0
1.758,6.25,0,0,0,0,0
1.759,6.25,0,0,0,0,0
1.76,6.5625,0,0,0,0,0
1.761,6.875,0,0,0,0,0
1.762,6.875,0,0,0,0,0
1.763,6.875,0,0,0,0,0
1.764,7.1875,0,0,0,0,0
1.765,6.875,0,0,0,0,0
1.766,6.5625,0,0,0,0,0
1.767,6.875,0,0,0,0,0
1.768,7.1875,0,0,0,0,0
1.769,7.5,0,0,0,0,0
1.77,7.5,0,0,0,0,0
1.771,8.125,0,0,0,0,0
1.772,7.5,0,0,0,0,0
1.773,7.5,0,0,0,0,0
1.774,7.1875,0,0,0,0,0
1.775,6.875,0,0,0,0,0
1.776,6.5625,0,0,0,0,0
1.777,6.25,0,0,0,0,0
1.778,6.5625,0,0,0,0,0
1.779,6.875,0,0,0,0,0
1.78,7.1875,0,0,0,0,0
1.781,7.5,0,0,0,0,0
1.782,6.875,0,0,0,0,0
1.783,6.875,0,0,0,0,0
1.784,6.5625,0,0,0,0,0
1.785,6.25,0,0,0,0,0
1.786,7.1875,0,0,0,0,0
1.787,7.5,0,0,0,0,0
1.788,6.875,0,0,0,0,0
1.789,6.25,0,0,0,0,0
1.79,5.9375,0,0,0,0,0
1.791,5.625,0,0,0,0,0
1.792,5,0,0,0,0,0
1.793,5,0,0,0,0,0
1.794,4.6875,0,0,0,0,0
1.795,4.375,0,0,0,0,0
1.796,4.6875,0,0,0,0,0
1.797,4.375,0,0,0,0,0
1.798,4.6875,0,0,0,0,0
1.799,5,0,0,0,0,0
1.8,5,0,0,0,0,0
1.801,5,0,0,0,0,0
1.802,4.375,0,0,0,0,0
1.803,4.375,0,0,0,0,0
1.804,4.6875,0,0,0,0,0
1.805,4.375,0,0,0,0,0
1.806,4.0625,0,0,0,0,0
1.807,3.75,0,0,0,0,0
1.808,3.4375,0,0,0,0,0
1.809,3.125,0,0,0,0,0
1.81,3.125,0,0,0,0,0
1.811,3.125,0,0,0,0,0
1.812,3.125,0,0,0,0,0
1.813,3.125,0,0,0,0,0
1.814,3.125,0,0,0,0,0
1.815,3.125,0,0,0,0,0
1.816,3.75,0,0,0,0,0
1.817,3.75,0,0,0,0,0
1.818,3.4375,0,0,0,0,0
1.819,3.125,0,0,0,0,0
1.82,3.75,0,0,0,0,0
1.821,3.125,0,0,0,0,0
1.822,3.4375,0,0,0,0,0
1.823,3.75,0,0,0,0,0
1.824,3.75,0,0,0,0,0
1.825,3.75,0,0,0,0,0
1.826,3.75,0,0,0,0,0
1.827,3.75,0,0,0,0,0
1.828,3.4375,0,0,0,0,0
1.829,3.125,0,0,0,0,0
1.83,3.125,0,0,0,0,0
1.831,3.125,0,0,0,0,0
1.832,3.125,0,0,0,0,0
1.833,3.125,0,0,0,0,0
1.834,2.8125,0,0,0,0,0
1.835,2.5,0,0,0,0,0
1.836,2.1875,0,0,0,0,0
1.837,1.875,0,0,0,0,0
1.838,2.5,0,0,0,0,0
1.839,2.5,0,0,0,0,0
1.84,2.8125,0,0,0,0,0
1.841,1.875,0,0,0,0,0
1.842,2.8125,0,0,0,0,0
1.843,2.5,0,0,0,0,0
1.844,2.5,0,0,0,0,0
1.845,2.5,0,0,0,0,0
1.846,2.5,0,0,0,0,0
1.847,2.5,0,0,0,0,0
1.848,2.8125,0,0,0,0,0
1.849,3.125,0,0,0,0,0
1.85,3.125,0,0,0,0,0
1.851,3.125,0,0,0,0,0
1.852,2.8125,0,0,0,0,0
1.853,2.5,0,0,0,0,0
1.854,2.8125,0,0,0,0,0
1.855,3.125,0,0,0,0,0
1.856,2.1875,0,0,0,0,0
1.857,2.5,0,0,0,0,0
1.858,2.5,0,0,0,0,0
1.859,2.5,0,0,0,0,0
1.86,2.5,0,0,0,0,0
1.861,2.5,0,0,0,0,0
1.862,2.5,0,0,0,0,0
1.863,2.5,0,0,0,0,0
1.864,2.1875,0,0,0,0,0
1.865,1.875,0,0,0,0,0
1.866,2.1875,0,0,0,0,0
1.867,2.5,0,0,0,0,0
1.868,2.5,0,0,0,0,0
1.869,2.5,0,0,0,0,0
1.87,2.1875,0,0,0,0,0
1.871,1.875,0,0,0,0,0
1.872,2.1875,0,0,0,0,0
1.873,2.5,0,0,0,0,0
1.874,2.1875,0,0,0,0,0
1.875,1.875,0,0,0,0,0
1.876,1.875,0,0,0,0,0
1.877,1.875,0,0,0,0,0
1.878,1.875,0,0,0,0,0
1.879,1.875,0,0,0,0,0
1.88,2.1875,0,0,0,0,0
1.881,1.875,0,0,0,0,0
1.882,1.875,0,0,0,0,0
1.883,2.5,0,0,0,0,0
1.884,2.5,0,0,0,0,0
1.885,2.5,0,0,0,0,0
1.886,2.1875,0,0,0,0,0
1.887,2.5,0,0,0,0,0
1.888,2.5,0,0,0,0,0
1.889,2.5,0,0,0,0,0
1.89,3.125,0,0,0,0,0
1.891,3.125,0,0,0,0,0
1.892,2.5,0,0,0,0,0
1.893,3.125,0,0,0,0,0
1.894,3.4375,0,0,0,0,0
1.895,3.125,0,0,0,0,0
1.896,3.125,0,0,0,0,0
1.897,3.125,0,0,0,0,0
1.898,3.125,0,0,0,0,0
1.899,3.125,0,0,0,0,0
1.9,2.8125,0,0,0,0,0
1.901,2.5,0,0,0,0,0
1.902,3.4375,0,0,0,0,0
1.903,3.125,0,0,0,0,0
1.904,3.125,0,0,0,0,0
1.905,3.125,0,0,0,0,0
1.906,3.125,0,0,0,0,0
1.907,2.5,0,0,0,0,0
1.908,2.1875,1,0,0,0,0
1.909,1.875,0,0,0,0,0
1.91,1.5625,0,0,0,0,0
1.911,1.875,0,0,0,0,0
1.912,1.5625,0,0,0,0,0
1.913,1.875,0,0,0,0,0
1.914,1.875,0,0,0,0,0
1.915,1.875,0,0,0,0,0
1.916,3.125,0,0,0,0,0
1.917,3.75,0,0,0,0,0
1.918,5,0,0,0,0,0
1.919,6.875,0,0,0,0,0
1.92,8.125,0,0,0,0,0
1.921,8.75,0,0,0,0,0
1.922,9.6875,0,0,0,0,0
1.923,10,0,0,0,0,0
1.924,12.188,0,0,0,0,0
1.925,13.125,0,0,0,0,0
1.926,15,0,0,0,0,0
1.927,15.625,0,0,0,0,0
1.928,16.875,0,0,0,0,0
1.929,17.5,0,0,0,0,0
1.93,19.063,0,0,0,0,0
1.931,20,0,0,0,0,0
1.932,20.938,0,0,0,0,0
1.933,22.5,0,0,0,0,0
1.934,24.375,0,0,0,0,0
1.935,26.25,0,0,0,0,0
1.936,28.75,0,0,0,0,0
1.937,31.875,0,0,0,0,0
1.938,34.063,0,0,0,0,0
1.939,35.625,0,1,0,0,0
1.94,36.563,0,0,0,0,0
1.941,37.5,0,0,0,0,0
1.942,37.813,0,0,0,0,0
1.943,37.5,0,0,0,0,0
1.944,35.938,0,0,0,0,0
1.945,33.75,0,0,0,0,0
1.946,33.125,0,0,0,0,0
1.947,31.875,0,0,0,0,0
1.948,30.625,0,0,0,0,0
1.949,28.75,0,0,0,0,0
1.95,26.25,0,0,0,0,0
1.951,24.375,0,0,0,0,0
1.952,22.188,0,0,0,0,0
1.953,19.375,0,0,0,0,0
1.954,16.25,0,0,0,0,0
1.955,13.125,0,0,0,0,0
1.956,9.0625,0,0,0,0,0
1.957,2.5,0,0,0,0,0
1.958,-5,0,0,0,0,0
1.959,-10.625,0,0,0,0,0
1.96,-15,0,0,0,0,0
1.961,-18.75,0,0,0,0,0
1.962,-21.25,0,0,0,0,0
1.963,-22.5,0,0,0,0,0
1.964,-23.75,0,0,0,0,0
1.965,-23.75,0,0,0,0,0
1.966,-23.75,0,0,0,0,0
1.967,-23.125,0,0,0,0,0
1.968,-20.313,0,0,0,0,0
1.969,-17.5,0,0,0,0,0
1.97,-15.625,0,0,0,0,0
1.971,-13.75,0,0,0,0,0
1.972,-13.125,0,0,0,0,0
1.973,-12.5,0,0,0,0,0
1.974,-11.25,0,0,0,0,0
1.975,-10,0,0,0,0,0
1.976,-9.6875,0,0,0,0,0
1.977,-8.75,0,0,0,0,0
1.978,-6.5625,0,0,0,0,0
1.979,-4.375,0,0,0,0,0
1.98,-3.75,0,0,0,0,0
1.981,-2.5,0,0,0,0,0
1.982,-1.5625,0,0,0,0,0
1.983,-1.25,0,0,0,0,0
1.984,-0.625,0,0,0,0,0
1.985,0,0,0,0,0,0
1.986,-0.625,0,0,0,0,0
1.987,-0.625,0,0,0,0,0
1.988,-0.3125,0,0,0,0,0
1.989,-0.625,0,0,0,0,0
1.99,-0.625,0,0,0,0,0
1.991,-0.625,0,0,0,0,0
1.992,-0.3125,0,0,0,0,0
1.993,0,0,0,0,0,0
1.994,0,0,0,0,0,0
1.995,0,0,0,0,0,0
1.996,0,0,0,0,0,0
1.997,0,0,0,0,0,0
1.998,0.9375,0,0,0,0,0
1.999,1.25,0,0,0,0,0
2,1.5625,0,0,0,0,0
2.001,1.875,0,0,0,0,0
2.002,0.9375,0,0,0,0,0
2.003,0.625,0,0,0,0,0
2.004,0.9375,0,0,0,0,0
2.005,1.25,0,0,0,0,0
2.006,0.9375,0,0,0,0,0
2.007,0.625,0,0,0,0,0
2.008,0,0,0,0,0,0
2.009,0,0,0,0,0,0
2.01,-0.3125,0,0,0,0,0
2.011,0,0,0,0,0,0
2.012,-0.625,0,0,0,0,0
2.013,-1.25,0,0,0,0,0
2.014,-0.9375,0,0,0,0,0
2.015,-1.25,0,0,0,0,0
2.016,-0.9375,0,0,0,0,0
2.017,-1.25,0,0,0,0,0
2.018,-1.5625,0,0,0,0,0
2.019,-1.875,0,0,0,0,0
2.02,-2.1875,0,0,0,0,0
2.021,-1.875,0,0,0,0,0
2.022,-2.5,0,0,0,0,0
2.023,-2.5,0,0,0,0,0
2.024,-2.5,0,0,0,0,0
2.025,-2.5,0,0,0,0,0
2.026,-3.125,0,0,0,0,0
2.027,-3.125,0,0,0,0,0
2.028,-3.125,0,0,0,0,0
2.029,-3.125,0,0,0,0,0
2.03,-2.8125,0,0,0,0,0
2.031,-3.125,0,0,0,0,0
2.032,-3.125,0,0,0,0,0
2.033,-3.125,0,0,0,0,0
2.034,-3.125,0,0,0,0,0
2.035,-3.125,0,0,0,0,0
2.036,-2.8125,0,0,0,0,0
2.037,-2.5,0,0,0,0,0
2.038,-3.125,0,0,0,0,0
2.039,-2.5,0,0,0,0,0
2.04,-2.1875,0,0,0,0,0
2.041,-1.25,0,0,0,0,0
2.042,-1.25,0,0,0,0,0
2.043,-1.25,0,0,0,0,0
2.044,-1.5625,0,0,0,0,0
2.045,-1.875,0,0,0,0,0
2.046,-1.25,0,0,0,0,0
2.047,-1.25,0,0,0,0,0
2.048,-1.5625,0,0,0,0,0
2.049,-1.25,0,0,0,0,0
2.05,-1.5625,0,0,0,0,0
2.051,-1.25,0,0,0,0,0
2.052,-0.625,0,0,0,0,0
2.053,0,0,0,0,0,0
2.054,-0.3125,0,0,0,0,0
2.055,0,0,0,0,0,0
2.056,0.9375,0,0,0,0,0
2.057,0.625,0,0,0,0,0
2.058,0.3125,0,0,0,0,0
2.059,0.625,0,0,0,0,0
2.06,0.3125,0,0,0,0,0
2.061,0,0,0,0,0,0
2.062,0.625,0,0,0,0,0
2.063,1.25,0,0,0,0,0
2.064,2.1875,0,0,0,0,0
2.065,2.5,0,0,0,0,0
2.066,3.4375,0,0,0,0,0
2.067,3.75,0,0,0,0,0
2.068,3.125,0,0,0,0,0
2.069,3.125,0,0,0,0,0
2.07,3.75,0,0,0,0,0
2.071,3.75,0,0,1,0,0
2.072,3.75,0,0,0,0,0
2.073,3.75,0,0,0,0,0
2.074,3.75,0,0,0,0,0
2.075,3.75,0,0,0,0,0
2.076,3.75,0,0,0,0,0
2.077,3.75,0,0,0,0,0
2.078,3.4375,0,0,0,0,0
2.079,3.125,0,0,0,0,0
2.08,3.125,0,0,0,0,0
2.081,3.125,0,0,0,0,0
2.082,3.125,0,0,0,0,0
2.083,3.125,0,0,0,0,0
2.084,3.4375,0,0,0,0,0
2.085,3.75,0,0,0,0,0
2.086,3.75,0,0,0,0,0
2.087,3.75,0,0,0,0,0
2.088,4.0625,0,0,0,0,0
2.089,4.375,0,0,0,0,0
2.09,5,0,0,0,0,0
2.091,4.375,0,0,0,0,0
2.092,4.6875,0,0,0,0,0
2.093,5,0,0,0,0,0
2.094,4.6875,0,0,0,0,0
2.095,4.375,0,0,0,0,0
2.096,4.375,0,0,0,0,0
2.097,4.375,0,0,0,0,0
2.098,4.375,0,0,0,0,0
2.099,4.375,0,0,0,0,0
2.1,4.6875,0,0,0,0,0
2.101,5,0,0,0,0,0
2.102,5,0,0,0,0,0
2.103,5,0,0,0,0,0
2.104,4.375,0,0,0,0,0
2.105,5,0,0,0,0,0
2.106,4.375,0,0,0,0,0
2.107,4.375,0,0,0,0,0
2.108,4.6875,0,0,0,0,0
2.109,5,0,0,0,0,0
2.11,4.6875,0,0,0,0,0
2.111,4.375,0,0,0,0,0
2.112,4.375,0,0,0,0,0
2.113,5,0,0,0,0,0
2.114,5,0,0,0,0,0
2.115,4.375,0,0,0,0,0
2.116,4.375,0,0,0,0,0
2.117,4.375,0,0,0,0,0
2.118,4.375,0,0,0,0,0
2.119,4.375,0,0,0,0,0
2.12,4.0625,0,0,0,0,0
2.121,3.75,0,0,0,0,0
2.122,3.4375,0,0,0,0,0
2.123,3.75,0,0,0,0,0
2.124,4.0625,0,0,0,0,0
2.125,3.75,0,0,0,0,0
2.126,4.375,0,0,0,0,0
2.127,3.75,0,0,0,0,0
2.128,4.0625,0,0,0,0,0
2.129,3.75,0,0,0,0,0
2.13,3.75,0,0,0,0,0
2.131,3.125,0,0,0,0,0
2.132,3.4375,0,0,0,0,0
2.133,3.125,0,0,0,0,0
2.134,3.75,0,0,0,0,0
2.135,3.75,0,0,0,0,0
2.136,4.0625,0,0,0,0,0
2.137,4.375,0,0,0,0,0
2.138,4.0625,0,0,0,0,0
2.139,3.75,0,0,0,0,0
2.14,4.0625,0,0,0,0,0
2.141,4.375,0,0,0,0,0
2.142,4.0625,0,0,0,0,0
2.143,3.75,0,0,0,0,0
2.144,3.4375,0,0,0,0,0
2.145,3.125,0,0,0,0,0
2.146,3.4375,0,0,0,0,0
2.147,3.75,0,0,0,0,0
2.148,3.4375,0,0,0,0,0
2.149,3.125,0,0,0,0,0
2.15,3.125,0,0,0,0,0
2.151,3.125,0,0,0,0,0
2.152,3.125,0,0,0,0,0
2.153,3.125,0,0,0,0,0
2.154,3.125,0,0,0,0,0
2.155,3.125,0,0,0,0,0
2.156,2.5,0,0,0,0,0
2.157,2.5,0,0,0,0,0
2.158,2.5,0,0,0,0,0
2.159,2.5,0,0,0,0,0
2.16,2.8125,0,0,0,0,0
2.161,3.125,0,0,0,0,0
2.162,2.5,0,0,0,0,0
2.163,2.5,0,0,0,0,0
2.164,2.5,0,0,0,0,0
2.165,2.5,0,0,0,0,0
2.166,2.8125,0,0,0,0,0
2.167,3.125,0,0,0,0,0
2.168,3.125,0,0,0,0,0
2.169,3.125,0,0,0,0,0
2.17,2.1875,0,0,0,0,0
2.171,2.5,0,0,0,0,0
2.172,2.5,0,0,0,0,0
2.173,1.875,0,0,0,0,0
2.174,1.875,0,0,0,0,0
2.175,1.875,0,0,0,0,0
2.176,1.875,0,0,0,0,0
2.177,1.875,0,0,0,0,0
2.178,1.875,0,0,0,0,0
2.179,1.875,0,0,0,0,0
2.18,1.5625,0,0,0,0,0
2.181,1.875,0,0,0,0,0
2.182,1.875,0,0,0,0,0
2.183,1.875,0,0,0,0,0
2.184,1.875,0,0,0,0,0
2.185,1.875,0,0,0,0,0
2.186,1.25,0,0,0,0,0
2.187,1.25,0,0,0,0,0
2.188,1.25,0,0,0,0,0
2.189,1.25,0,0,0,0,0
2.19,1.25,0,0,0,0,0
2.191,0.625,0,0,0,0,0
2.192,1.25,0,0,0,0,0
2.193,1.25,0,0,0,0,0
2.194,0.9375,0,0,0,0,0
2.195,1.25,0,0,0,0,0
2.196,0.625,0,0,0,0,0
2.197,0.625,0,0,0,0,0
2.198,0.625,0,0,0,0,0
2.199,0.625,0,0,0,0,0
2.2,0,0,0,0,0,0
2.201,0,0,0,0,0,0
2.202,0.3125,0,0,0,0,0
2.203,0.625,0,0,0,0,0
2.204,0.3125,0,0,0,0,0
2.205,0,0,0,0,0,0
2.206,-0.625,0,0,0,0,0
2.207,-1.25,0,0,0,0,0
2.208,-0.625,0,0,0,0,0
2.209,-0.625,0,0,0,0,0
2.21,-1.25,0,0,0,0,0
2.211,-1.25,0,0,0,0,0
2.212,-1.5625,0,0,0,0,0
2.213,-1.25,0,0,0,0,0
2.214,-1.5625,0,0,0,0,0
2.215,-1.875,0,0,0,0,0
2.216,-1.875,0,0,0,0,0
2.217,-1.875,0,0,0,0,0
2.218,-2.5,0,0,0,0,0
2.219,-2.5,0,0,0,0,0
2.22,-2.5,0,0,0,0,0
2.221,-2.5,0,0,0,0,0
2.222,-2.8125,0,0,0,0,0
2.223,-3.125,0,0,0,0,0
2.224,-2.8125,0,0,0,0,0
2.225,-2.5,0,0,0,1,0
2.226,-2.1875,0,0,0,0,0
2.227,-1.875,0,0,0,0,0
2.228,-1.25,0,0,0,0,0
2.229,-1.25,0,0,0,0,0
2.23,-0.9375,0,0,0,0,0
2.231,-0.625,0,0,0,0,0
2.232,-0.9375,0,0,0,0,0
2.233,-1.25,0,0,0,0,0
2.234,-0.9375,0,0,0,0,0
2.235,-0.625,0,0,0,0,0
2.236,-0.9375,0,0,0,0,0
2.237,-1.25,0,0,0,0,0
2.238,-1.875,0,0,0,0,0
2.239,-1.875,0,0,0,0,0
2.24,-1.875,0,0,0,0,0
2.241,-1.875,0,0,0,0,0
2.242,-1.5625,0,0,0,0,0
2.243,-1.25,0,0,0,0,0
2.244,-1.25,0,0,0,0,0
2.245,-0.625,0,0,0,0,0
2.246,-0.625,0,0,0,0,0
2.247,-0.625,0,0,0,0,0
2.248,-0.9375,0,0,0,0,0
2.249,-0.625,0,0,0,0,0
2.25,-0.3125,0,0,0,0,0
2.251,0,0,0,0,0,0
2.252,0.625,0,0,0,0,0
2.253,1.25,0,0,0,0,0
2.254,1.5625,0,0,0,0,0
2.255,1.875,0,0,0,0,0
2.256,1.875,0,0,0,0,0
2.257,1.875,0,0,0,0,0
2.258,2.1875,0,0,0,0,0
2.259,1.875,0,0,0,0,0
2.26,2.5,0,0,0,0,0
2.261,2.5,0,0,0,0,0
2.262,2.5,0,0,0,0,0
2.263,2.5,0,0,0,0,0
2.264,3.4375,0,0,0,0,0
2.265,3.75,0,0,0,0,0
2.266,4.375,0,0,0,0,0
2.267,4.375,0,0,0,0,0
2.268,4.6875,0,0,0,0,0
2.269,4.375,0,0,0,0,0
2.27,4.0625,0,0,0,0,0
2.271,3.75,0,0,0,0,0
2.272,4.0625,0,0,0,0,0
2.273,3.75,0,0,0,0,0
2.274,4.0625,0,0,0,0,0
2.275,5,0,0,0,0,0
2.276,5,0,0,0,0,0
2.277,5,0,0,0,0,0
2.278,5.625,0,0,0,0,0
2.279,5.625,0,0,0,0,0
2.28,5.9375,0,0,0,0,0
2.281,5.625,0,0,0,0,0
2.282,5.9375,0,0,0,0,0
2.283,6.25,0,0,0,0,0
2.284,6.5625,0,0,0,0,0
2.285,6.875,0,0,0,0,0
2.286,7.1875,0,0,0,0,0
2.287,6.875,0,0,0,0,0
2.288,7.1875,0,0,0,0,0
2.289,7.5,0,0,0,0,0
2.29,6.875,0,0,0,0,0
2.291,6.875,0,0,0,0,0
2.292,7.1875,0,0,0,0,0
2.293,7.5,0,0,0,0,0
2.294,7.8125,0,0,0,0,0
2.295,8.125,0,0,0,0,0
2.296,8.125,0,0,0,0,0
2.297,8.75,0,0,0,0,0
2.298,8.4375,0,0,0,0,0
2.299,8.125,0,0,0,0,0
2.3,8.75,0,0,0,0,0
2.301,8.75,0,0,0,0,0
2.302,8.75,0,0,0,0,0
2.303,9.375,0,0,0,0,0
2.304,9.375,0,0,0,0,0
2.305,9.375,0,0,0,0,0
2.306,9.0625,0,0,0,0,0
2.307,8.75,0,0,0,0,0
2.308,8.75,0,0,0,0,0
2.309,8.75,0,0,0,0,0
2.31,8.4375,0,0,0,0,0
2.311,8.125,0,0,0,0,0
2.312,8.4375,0,0,0,0,0
2.313,8.125,0,0,0,0,0
2.314,8.125,0,0,0,0,0
2.315,8.125,0,0,0,0,0
2.316,8.125,0,0,0,0,0
2.317,8.125,0,0,0,0,0
2.318,8.75,0,0,0,0,0
2.319,8.125,0,0,0,0,0
2.32,8.4375,0,0,0,0,0
2.321,8.75,0,0,0,0,0
2.322,8.4375,0,0,0,0,0
2.323,8.125,0,0,0,0,0
2.324,8.4375,0,0,0,0,0
2.325,8.75,0,0,0,0,0
2.326,8.4375,0,0,0,0,0
2.327,8.75,0,0,0,0,0
2.328,8.125,0,0,0,0,0
2.329,8.125,0,0,0,0,0
2.33,8.125,0,0,0,0,0
2.331,8.125,0,0,0,0,0
2.332,8.125,0,0,0,0,0
2.333,8.75,0,0,0,0,0
2.334,8.75,0,0,0,0,0
2.335,8.125,0,0,0,0,0
2.336,7.8125,0,0,0,0,0
2.337,7.5,0,0,0,0,0
2.338,7.1875,0,0,0,0,0
2.339,6.875,0,0,0,0,0
2.34,6.875,0,0,0,0,0
2.341,6.875,0,0,0,0,0
2.342,6.875,0,0,0,0,0
2.343,7.5,0,0,0,0,0
2.344,7.5,0,0,0,0,0
2.345,7.5,0,0,0,0,0
2.346,7.1875,0,0,0,0,1
2.347,7.5,0,0,0,0,0
2.348,7.5,0,0,0,0,0
2.349,7.5,0,0,0,0,0
2.35,6.875,0,0,0,0,0
2.351,6.875,0,0,0,0,0
2.352,6.875,0,0,0,0,0
2.353,6.875,0,0,0,0,0
2.354,7.1875,0,0,0,0,0
2.355,7.5,0,0,0,0,0
2.356,7.1875,0,0,0,0,0
2.357,6.875,0,0,0,0,0
2.358,6.5625,0,0,0,0,0
2.359,6.25,0,0,0,0,0
2.36,6.875,0,0,0,0,0
2.361,6.25,0,0,0,0,0
2.362,7.1875,0,0,0,0,0
2.363,6.875,0,0,0,0,0
2.364,6.875,0,0,0,0,0
2.365,6.875,0,0,0,0,0
2.366,6.875,0,0,0,0,0
2.367,6.875,0,0,0,0,0
2.368,6.5625,0,0,0,0,0
2.369,6.25,0,0,0,0,0
2.37,6.25,0,0,0,0,0
2.371,6.25,0,0,0,0,0
2.372,5.9375,0,0,0,0,0
2.373,5.625,0,0,0,0,0
2.374,5.9375,0,0,0,0,0
2.375,6.25,0,0,0,0,0
2.376,5.9375,0,0,0,0,0
2.377,5.625,0,0,0,0,0
2.378,5.9375,0,0,0,0,0
2.379,6.25,0,0,0,0,0
2.38,7.1875,0,0,0,0,0
2.381,7.5,0,0,0,0,0
2.382,6.875,0,0,0,0,0
2.383,6.875,0,0,0,0,0
2.384,7.1875,0,0,0,0,0
2.385,6.875,0,0,0,0,0
2.386,7.1875,0,0,0,0,0
2.387,7.5,0,0,0,0,0
2.388,6.5625,0,0,0,0,0
2.389,6.875,0,0,0,0,0
2.39,6.875,0,0,0,0,0
2.391,6.875,0,0,0,0,0
2.392,6.875,0,0,0,0,0
2.393,7.5,0,0,0,0,0
2.394,7.8125,0,0,0,0,0
2.395,7.5,0,0,0,0,0
2.396,7.5,0,0,0,0,0
2.397,7.5,0,0,0,0,0
2.398,7.1875,0,0,0,0,0
2.399,6.875,0,0,0,0,0
2.4,7.5,0,0,0,0,0
2.401,6.875,0,0,0,0,0
2.402,6.875,0,0,0,0,0
2.403,6.875,0,0,0,0,0
2.404,6.875,0,0,0,0,0
2.405,6.875,0,0,0,0,0
2.406,6.5625,0,0,0,0,0
2.407,6.25,0,0,0,0,0
2.408,6.5625,0,0,0,0,0
2.409,6.875,0,0,0,0,0
2.41,7.1875,0,0,0,0,0
2.411,7.5,0,0,0,0,0
2.412,7.5,0,0,0,0,0
2.413,8.125,0,0,0,0,0
2.414,8.125,0,0,0,0,0
2.415,8.125,0,0,0,0,0
2.416,7.5,0,0,0,0,0
2.417,7.5,0,0,0,0,0
2.418,7.5,0,0,0,0,0
2.419,7.5,0,0,0,0,0
2.42,7.8125,0,0,0,0,0
2.421,8.125,0,0,0,0,0
2.422,7.8125,0,0,0,0,0
2.423,7.5,0,0,0,0,0
2.424,7.1875,0,0,0,0,0
2.425,6.875,0,0,0,0,0
2.426,7.5,0,0,0,0,0
2.427,6.875,0,0,0,0,0
2.428,6.875,0,0,0,0,0
2.429,6.875,0,0,0,0,0
2.43,7.1875,0,0,0,0,0
2.431,6.875,0,0,0,0,0
2.432,6.875,0,0,0,0,0
2.433,6.875,0,0,0,0,0
2.434,6.875,0,0,0,0,0
2.435,6.875,0,0,0,0,0
2.436,7.1875,0,0,0,0,0
2.437,7.5,0,0,0,0,0
2.438,6.5625,0,0,0,0,0
2.439,6.875,0,0,0,0,0
2.44,7.1875,0,0,0,0,0
2.441,7.5,0,0,0,0,0
2.442,6.875,0,0,0,0,0
2.443,6.875,0,0,0,0,0
2.444,6.875,0,0,0,0,0
2.445,6.875,0,0,0,0,0
2.446,6.5625,0,0,0,0,0
2.447,6.875,0,0,0,0,0
2.448,6.875,0,0,0,0,0
2.449,6.875,0,0,0,0,0
2.45,6.875,0,0,0,0,0
2.451,6.875,0,0,0,0,0
2.452,6.875,0,0,0,0,0
2.453,6.25,0,0,0,0,0
2.454,6.5625,0,0,0,0,0
2.455,6.875,0,0,0,0,0
2.456,6.5625,0,0,0,0,0
2.457,6.25,0,0,0,0,0
2.458,7.1875,0,0,0,0,0
2.459,6.875,0,0,0,0,0
2.46,7.5,0,0,0,0,0
2.461,6.875,0,0,0,0,0
2.462,6.5625,0,0,0,0,0
2.463,6.875,0,0,0,0,0
2.464,7.1875,0,0,0,0,0
2.465,7.5,0,0,0,0,0
2.466,6.875,0,0,0,0,0
2.467,6.875,0,0,0,0,0
2.468,6.875,0,0,0,0,0
2.469,6.875,0,0,0,0,0
2.47,7.1875,0,0,0,0,0
2.471,7.5,0,0,0,0,0
2.472,7.5,0,0,0,0,0
2.473,7.5,0,0,0,0,0
2.474,7.1875,0,0,0,0,0
2.475,8.125,0,0,0,0,0
2.476,7.1875,0,0,0,0,0
2.477,7.5,0,0,0,0,0
2.478,7.5,0,0,0,0,0
2.479,7.5,0,0,0,0,0
2.48,7.5,0,0,0,0,0
2.481,7.5,0,0,0,0,0
2.482,6.5625,0,0,0,0,0
2.483,6.875,0,0,0,0,0
2.484,6.875,0,0,0,0,0
2.485,6.875,0,0,0,0,0
2.486,6.5625,0,0,0,0,0
2.487,6.25,0,0,0,0,0
2.488,6.5625,0,0,0,0,0
2.489,6.875,0,0,0,0,0
2.49,6.875,0,0,0,0,0
2.491,6.25,0,0,0,0,0
2.492,6.5625,0,0,0,0,0
2.493,6.25,0,0,0,0,0
2.494,6.875,0,0,0,0,0
2.495,6.875,0,0,0,0,0
2.496,6.25,0,0,0,0,0
2.497,6.25,0,0,0,0,0
2.498,6.875,0,0,0,0,0
2.499,6.875,0,0,0,0,0
2.5,6.875,0,0,0,0,0
2.501,7.5,0,0,0,0,0
2.502,7.5,0,0,0,0,0
2.503,7.5,0,0,0,0,0
2.504,7.1875,0,0,0,0,0
2.505,6.875,0,0,0,0,0
2.506,6.875,0,0,0,0,0
2.507,6.875,0,0,0,0,0
2.508,7.1875,0,0,0,0,0
2.509,7.5,0,0,0,0,0
2.51,7.5,0,0,0,0,0
2.511,7.5,0,0,0,0,0
2.512,7.5,0,0,0,0,0
2.513,7.5,0,0,0,0,0
2.514,7.1875,0,0,0,0,0
2.515,6.875,0,0,0,0,0
2.516,6.875,0,0,0,0,0
2.517,6.875,0,0,0,0,0
2.518,7.1875,0,0,0,0,0
2.519,6.875,0,0,0,0,0
2.52,6.5625,0,0,0,0,0
2.521,6.25,0,0,0,0,0
2.522,6.5625,0,0,0,0,0
2.523,6.25,0,0,0,0,0
2.524,6.5625,0,0,0,0,0
2.525,6.875,0,0,0,0,0
2.526,6.875,0,0,0,0,0
2.527,7.5,0,0,0,0,0
2.528,7.5,0,0,0,0,0
2.529,7.5,0,0,0,0,0
2.53,7.5,0,0,0,0,0
2.531,7.5,0,0,0,0,0
2.532,7.8125,0,0,0,0,0
2.533,8.125,0,0,0,0,0
2.534,8.75,0,0,0,0,0
2.535,8.75,0,0,0,0,0
2.536,8.75,0,0,0,0,0
2.537,8.75,0,0,0,0,0
2.538,8.75,0,0,0,0,0
2.539,8.75,0,0,0,0,0
2.54,8.75,0,0,0,0,0
2.541,8.75,0,0,0,0,0
2.542,9.0625,0,0,0,0,0
2.543,9.375,0,0,0,0,0
2.544,9.375,0,0,0,0,0
2.545,9.375,0,0,0,0,0
2.546,9.6875,0,0,0,0,0
2.547,10,0,0,0,0,0
2.548,9.6875,0,0,0,0,0
2.549,9.375,0,0,0,0,0
2.55,9.375,0,0,0,0,0
2.551,9.375,0,0,0,0,0
2.552,9.6875,0,0,0,0,0
2.553,10,0,0,0,0,0
2.554,10,0,0,0,0,0
2.555,10,0,0,0,0,0
2.556,10,0,0,0,0,0
2.557,10,0,0,0,0,0
2.558,9.6875,0,0,0,0,0
2.559,9.375,0,0,0,0,0
2.56,9.6875,0,0,0,0,0
2.561,10,0,0,0,0,0
2.562,10.313,0,0,0,0,0
2.563,10.625,0,0,0,0,0
2.564,10.625,0,0,0,0,0
2.565,10.625,0,0,0,0,0
2.566,10.313,0,0,0,0,0
2.567,10,0,0,0,0,0
2.568,10,0,0,0,0,0
2.569,10,0,0,0,0,0
2.57,10.313,0,0,0,0,0
2.571,10.625,0,0,0,0,0
2.572,10.625,0,0,0,0,0
2.573,10.625,0,0,0,0,0
2.574,10.313,0,0,0,0,0
2.575,10,0,0,0,0,0
2.576,10,0,0,0,0,0
2.577,10,0,0,0,0,0
2.578,10,0,0,0,0,0
2.579,10,0,0,0,0,0
2.58,9.6875,0,0,0,0,0
2.581,9.375,0,0,0,0,0
2.582,9.0625,0,0,0,0,0
2.583,8.75,0,0,0,0,0
2.584,8.4375,0,0,0,0,0
2.585,8.125,0,0,0,0,0
2.586,8.125,0,0,0,0,0
2.587,8.125,0,0,0,0,0
2.588,7.8125,0,0,0,0,0
2.589,7.5,0,0,0,0,0
2.59,7.1875,0,0,0,0,0
2.591,6.875,0,0,0,0,0
2.592,6.5625,0,0,0,0,0
2.593,6.25,0,0,0,0,0
2.594,6.25,0,0,0,0,0
2.595,6.25,0,0,0,0,0
2.596,5.9375,0,0,0,0,0
2.597,5.625,0,0,0,0,0
2.598,5.9375,0,0,0,0,0
2.599,6.25,0,0,0,0,0
2.6,6.25,0,0,0,0,0
2.601,6.25,0,0,0,0,0
2.602,6.25,0,0,0,0,0
2.603,6.25,0,0,0,0,0
2.604,5.9375,0,0,0,0,0
2.605,5.625,0,0,0,0,0
2.606,5.625,0,0,0,0,0
2.607,5.625,0,0,0,0,0
2.608,5.625,0,0,0,0,0
2.609,5.625,0,0,0,0,0
2.61,5.625,0,0,0,0,0
2.611,5.625,0,0,0,0,0
2.612,5.9375,0,0,0,0,0
2.613,6.25,0,0,0,0,0
2.614,5.9375,0,0,0,0,0
2.615,5.625,0,0,0,0,0
2.616,5.3125,0,0,0,0,0
2.617,5,0,0,0,0,0
2.618,4.6875,0,0,0,0,0
2.619,4.375,0,0,0,0,0
2.62,4.6875,0,0,0,0,0
2.621,5,0,0,0,0,0
2.622,5,0,0,0,0,0
2.623,5,0,0,0,0,0
2.624,5,0,0,0,0,0
2.625,5,0,0,0,0,0
2.626,5,0,0,0,0,0
2.627,5,0,0,0,0,0
2.628,4.6875,0,0,0,0,0
2.629,4.375,0,0,0,0,0
2.63,4.375,0,0,0,0,0
2.631,4.375,0,0,0,0,0
2.632,4.375,0,0,0,0,0
2.633,4.375,0,0,0,0,0
2.634,4.0625,0,0,0,0,0
2.635,3.75,0,0,0,0,0
2.636,4.375,0,0,0,0,0
2.637,5,0,0,0,0,0
2.638,5,0,0,0,0,0
2.639,5,0,0,0,0,0
2.64,4.6875,0,0,0,0,0
2.641,4.375,0,0,0,0,0
2.642,4.0625,0,0,0,0,0
2.643,3.75,0,0,0,0,0
2.644,3.4375,0,0,0,0,0
2.645,3.125,0,0,0,0,0
2.646,2.8125,0,0,0,0,0
2.647,2.5,0,0,0,0,0
2.648,2.5,0,0,0,0,0
2.649,2.5,0,0,0,0,0
2.65,2.5,0,0,0,0,0
2.651,2.5,0,0,0,0,0
2.652,2.1875,0,0,0,0,0
2.653,1.875,0,0,0,0,0
2.654,2.1875,0,0,0,0,0
2.655,2.5,0,0,0,0,0
2.656,2.1875,0,0,0,0,0
2.657,1.875,0,0,0,0,0
2.658,1.875,0,0,0,0,0
2.659,1.875,0,0,0,0,0
2.66,1.5625,0,0,0,0,0
2.661,1.25,0,0,0,0,0
2.662,1.25,0,0,0,0,0
2.663,1.25,0,0,0,0,0
2.664,1.25,0,0,0,0,0
2.665,1.25,0,0,0,0,0
2.666,1.25,0,0,0,0,0
2.667,1.25,0,0,0,0,0
2.668,0.9375,0,0,0,0,0
2.669,0.625,0,0,0,0,0
2.67,0.625,0,0,0,0,0
2.671,0.625,0,0,0,0,0
2.672,0.3125,0,0,0,0,0
2.673,0,0,0,0,0,0
2.674,-0.3125,0,0,0,0,0
2.675,-0.625,0,0,0,0,0
2.676,-0.9375,0,0,0,0,0
2.677,-1.25,0,0,0,0,0
2.678,-1.5625,0,0,0,0,0
2.679,-1.875,0,0,0,0,0
2.68,-2.1875,0,0,0,0,0
2.681,-2.5,0,0,0,0,0
2.682,-7.1875,0,0,0,0,0
2.683,-11.875,0,0,0,0,0
2.684,-12.813,0,0,0,0,0
2.685,-13.75,0,0,0,0,0
2.686,-11.25,0,0,0,0,0
2.687,-8.75,0,0,0,0,0
2.688,-9.6875,0,0,0,0,0
2.689,-10.625,0,0,0,0,0
2.69,-11.563,0,0,0,0,0
2.691,-12.5,0,0,0,0,0
2.692,-18.75,0,0,0,0,0
2.693,-25,0,0,0,0,0
2.694,-26.25,0,0,0,0,0
2.695,-27.5,0,0,0,0,0
2.696,-27.5,0,0,0,0,0
2.697,-27.5,0,0,0,0,0
2.698,-26.25,0,0,0,0,0
2.699,-25,0,0,0,0,0
2.7,-25,0,0,0,0,0
2.701,-25,0,0,0,0,0
2.702,-25.313,0,0,0,0,0
2.703,-25.625,0,0,0,0,0
2.704,-25,0,0,0,0,0
2.705,-24.375,0,0,0,0,0
2.706,-24.063,0,0,0,0,0
2.707,-23.75,0,0,0,0,0
2.708,-22.813,0,0,0,0,0
2.709,-21.875,0,0,0,0,0
2.71,-20.625,0,0,0,0,0
2.711,-19.375,0,0,0,0,0
2.712,-18.438,0,0,0,0,0
2.713,-17.5,0,0,0,0,0
2.714,-17.188,0,0,0,0,0
2.715,-16.875,0,0,0,0,0
2.716,-14.375,0,0,0,0,0
2.717,-11.875,0,0,0,0,0
2.718,-9.6875,0,0,0,0,0
2.719,-7.5,0,0,0,0,0
2.72,-7.5,0,0,0,0,0
2.721,-7.5,0,0,0,0,0
2.722,-5.9375,0,0,0,0,0
2.723,-4.375,0,0,0,0,0
2.724,-1.5625,0,0,0,0,0
2.725,1.25,0,0,0,0,0
2.726,4.375,0,0,0,0,0
2.727,7.5,0,0,0,0,0
2.728,9.0625,0,0,0,0,0
2.729,10.625,0,0,0,0,0
2.73,12.5,0,0,0,0,0
2.731,14.375,0,0,0,0,0
2.732,14.063,0,0,0,0,0
2.733,13.75,0,0,0,0,0
2.734,11.563,0,0,0,0,0
2.735,9.375,0,0,0,0,0
2.736,6.875,0,0,0,0,0
2.737,4.375,0,0,0,0,0
2.738,1.5625,0,0,0,0,0
2.739,-1.25,0,0,0,0,0
2.74,-1.25,0,0,0,0,0
2.741,-1.25,0,0,0,0,0
2.742,-3.4375,0,0,0,0,0
2.743,-5.625,0,0,0,0,0
2.744,-10.625,0,0,0,0,0
2.745,-15.625,0,0,0,0,0
2.746,-20.625,0,0,0,0,0
2.747,-25.625,0,0,0,0,0
2.748,-31.25,0,0,0,0,0
2.749,-36.875,0,0,0,0,0
2.75,-40.625,0,0,0,0,0
2.751,-44.375,0,0,0,0,0
2.752,-46.875,0,0,0,0,0
2.753,-49.375,0,0,0,0,0
2.754,-49.688,0,0,0,0,0
2.755,-50,0,0,0,0,0
2.756,-48.75,0,0,0,0,0
2.757,-47.5,0,0,0,0,0
2.758,-43.75,0,0,0,0,0
2.759,-40,0,0,0,0,0
2.76,-39.688,0,0,0,0,0
2.761,-39.375,0,0,0,0,0
2.762,-38.75,0,0,0,0,0
2.763,-38.125,0,0,0,0,0
2.764,-36.25,0,0,0,0,0
2.765,-34.375,0,0,0,0,0
2.766,-30.625,0,0,0,0,0
2.767,-26.875,0,0,0,0,0
2.768,-25,0,0,0,0,0
2.769,-23.125,0,0,0,0,0
2.77,-20.313,0,0,0,0,0
2.771,-17.5,0,0,0,0,0
2.772,-16.25,0,0,0,0,0
2.773,-15,0,0,0,0,0
2.774,-14.063,0,0,0,0,0
2.775,-13.125,0,0,0,0,0
2.776,-12.188,0,0,0,0,0
2.777,-11.25,0,0,0,0,0
2.778,-11.25,0,0,0,0,0
2.779,-11.25,0,0,0,0,0
2.78,-10.938,0,0,0,0,0
2.781,-10.625,0,0,0,0,0
2.782,-10.313,0,0,0,0,0
2.783,-10,0,0,0,0,0
2.784,-10,0,0,0,0,0
2.785,-10,0,0,0,0,0
2.786,-10,0,0,0,0,0
2.787,-10,0,0,0,0,0
2.788,-10.625,0,0,0,0,0
2.789,-11.25,0,0,0,0,0
2.79,-11.563,0,0,0,0,0
2.791,-11.875,0,0,0,0,0
2.792,-12.188,0,0,0,0,0
2.793,-12.5,0,0,0,0,0
2.794,-12.813,0,0,0,0,0
2.795,-13.125,0,0,0,0,0
2.796,-13.125,0,0,0,0,0
2.797,-13.125,0,0,0,0,0
2.798,-12.813,0,0,0,0,0
2.799,-12.5,0,0,0,0,0
2.8,-14.688,0,0,0,0,0
2.801,-16.875,0,0,0,0,0
2.802,-17.188,0,0,0,0,0
2.803,-17.5,0,0,0,0,0
2.804,-16.563,0,0,0,0,0
2.805,-15.625,0,0,0,0,0
2.806,-15.313,0,0,0,0,0
2.807,-15,0,0,0,0,0
2.808,-13.125,0,0,0,0,0
2.809,-11.25,0,0,0,0,0
2.81,-10.938,0,0,0,0,0
2.811,-10.625,0,0,0,0,0
2.812,-10.938,0,0,0,0,0
2.813,-11.25,0,0,0,0,0
2.814,-11.25,0,0,0,0,0
2.815,-11.25,0,0,0,0,0
2.816,-11.25,0,0,0,0,0
2.817,-11.25,0,0,0,0,0
2.818,-11.563,0,0,0,0,0
2.819,-11.875,0,0,0,0,0
2.82,-12.188,0,0,0,0,0
2.821,-12.5,0,0,0,0,0
2.822,-12.188,0,0,0,0,0
2.823,-11.875,0,0,0,0,0
2.824,-12.188,0,0,0,0,0
2.825,-12.5,0,0,0,0,0
2.826,-12.813,0,0,0,0,0
2.827,-13.125,0,0,0,0,0
2.828,-13.125,0,0,0,0,0
2.829,-13.125,0,0,0,0,0
2.83,-13.125,0,0,0,0,0
2.831,-13.125,0,0,0,0,0
2.832,-12.813,0,0,0,0,0
2.833,-12.5,0,0,0,0,0
2.834,-13.125,0,0,0,0,0
2.835,-13.75,0,0,0,0,0
2.836,-14.063,0,0,0,0,0
2.837,-14.375,0,0,0,0,0
2.838,-14.688,0,0,0,0,0
2.839,-15,0,0,0,0,0
2.84,-14.375,0,0,0,0,0
2.841,-13.75,0,0,0,0,0
2.842,-14.063,0,0,0,0,0
2.843,-14.375,0,0,0,0,0
2.844,-13.75,0,0,0,0,0
2.845,-13.125,0,0,0,0,0
2.846,-11.563,0,0,0,0,0
2.847,-10,0,0,0,0,0
2.848,-9.375,0,0,0,0,0
2.849,-8.75,0,0,0,0,0
2.85,-8.75,0,0,0,0,0
2.851,-8.75,0,0,0,0,0
2.852,-8.75,0,0,0,0,0
2.853,-8.75,0,0,0,0,0
2.854,-8.75,0,0,0,0,0
2.855,-8.75,0,0,0,0,0
2.856,-8.125,0,0,0,0,0
2.857,-7.5,0,0,0,0,0
2.858,-6.5625,0,0,0,0,0
2.859,-5.625,0,0,0,0,0
2.86,-5.625,0,0,0,0,0
2.861,-5.625,0,0,0,0,0
2.862,-5.625,0,0,0,0,0
2.863,-5.625,0,0,0,0,0
2.864,-5.625,0,0,0,0,0
2.865,-5.625,0,0,0,0,0
2.866,-5.625,0,0,0,0,0
2.867,-5.625,0,0,0,0,0
2.868,-6.25,0,0,0,0,0
2.869,-6.875,0,0,0,0,0
2.87,-6.875,0,0,0,0,0
2.871,-6.875,0,0,0,0,0
2.872,-6.875,0,0,0,0,0
2.873,-6.875,0,0,0,0,0
2.874,-6.875,0,0,0,0,0
2.875,-6.875,0,0,0,0,0
2.876,-7.1875,0,0,0,0,0
2.877,-7.5,0,0,0,0,0
2.878,-5.9375,0,0,0,0,0
2.879,-4.375,0,0,0,0,0
2.88,-4.0625,0,0,0,0,0
2.881,-3.75,0,0,0,0,0
2.882,-3.75,0,0,0,0,0
2.883,-3.75,0,0,0,0,0
2.884,-3.75,0,0,0,0,0
2.885,-3.75,0,0,0,0,0
2.886,-4.6875,0,0,0,0,0
2.887,-5.625,0,0,0,0,0
2.888,-5.625,0,0,0,0,0
2.889,-5.625,0,0,0,0,0
2.89,-5.3125,0,0,0,0,0
2.891,-5,0,0,0,0,0
2.892,-5,0,0,0,0,0
2.893,-5,0,0,0,0,0
2.894,-4.6875,0,0,0,0,0
2.895,-4.375,0,0,0,0,0
2.896,-4.375,0,0,0,0,0
2.897,-4.375,0,0,0,0,0
2.898,-4.375,0,0,0,0,0
2.899,-4.375,0,0,0,0,0
2.9,-4.6875,0,0,0,0,0
2.901,-5,0,0,0,0,0
2.902,-5,0,0,0,0,0
2.903,-5,0,0,0,0,0
2.904,-4.6875,0,0,0,0,0
2.905,-4.375,0,0,0,0,0
2.906,-4.375,0,0,0,0,0
2.907,-4.375,0,0,0,0,0
2.908,-4.375,0,0,0,0,0
2.909,-4.375,0,0,0,0,0
2.91,-4.6875,0,0,0,0,0
2.911,-5,0,0,0,0,0
2.912,-4.6875,0,0,0,0,0
2.913,-4.375,0,0,0,0,0
2.914,-4.6875,0,0,0,0,0
2.915,-5,0,0,0,0,0
2.916,-5,0,0,0,0,0
2.917,-5,0,0,0,0,0
2.918,-5,0,0,0,0,0
2.919,-5,0,0,0,0,0
2.92,-5,0,0,0,0,0
2.921,-5,0,0,0,0,0
2.922,-4.6875,0,0,0,0,0
2.923,-4.375,0,0,0,0,0
2.924,-4.375,0,0,0,0,0
2.925,-4.375,0,0,0,0,0
2.926,-4.6875,0,0,0,0,0
2.927,-5,0,0,0,0,0
2.928,-5.3125,0,0,0,0,0
2.929,-5.625,0,0,0,0,0
2.93,-5.625,0,0,0,0,0
2.931,-5.625,0,0,0,0,0
2.932,-5,0,0,0,0,0
2.933,-4.375,0,0,0,0,0
2.934,-3.75,0,0,0,0,0
2.935,-3.125,0,0,0,0,0
2.936,-3.125,0,0,0,0,0
2.937,-3.125,0,0,0,0,0
2.938,-1.5625,0,0,0,0,0
2.939,0,0,0,0,0,0
2.94,0.3125,0,0,0,0,0
2.941,0.625,0,0,0,0,0
2.942,0.625,0,0,0,0,0
2.943,0.625,0,0,0,0,0
2.944,0.625,0,0,0,0,0
2.945,0.625,0,0,0,0,0
2.946,0.625,0,0,0,0,0
2.947,0.625,0,0,0,0,0
2.948,0.625,0,0,0,0,0
2.949,0.625,0,0,0,0,0
2.95,0.625,0,0,0,0,0
2.951,0.625,0,0,0,0,0
2.952,0.625,0,0,0,0,0
2.953,0.625,0,0,0,0,0
2.954,0.625,0,0,0,0,0
2.955,0.625,0,0,0,0,0
2.956,0.3125,0,0,0,0,0
2.957,0,0,0,0,0,0
2.958,-0.3125,0,0,0,0,0
2.959,-0.625,0,0,0,0,0
2.96,-0.3125,0,0,0,0,0
2.961,0,0,0,0,0,0
2.962,-0.625,0,0,0,0,0
2.963,-1.25,0,0,0,0,0
2.964,-0.9375,0,0,0,0,0
2.965,-0.625,0,0,0,0,0
2.966,-0.9375,0,0,0,0,0
2.967,-1.25,0,0,0,0,0
2.968,-1.25,0,0,0,0,0
2.969,-1.25,0,0,0,0,0
2.97,-1.25,0,0,0,0,0
2.971,-1.25,0,0,0,0,0
2.972,-1.5625,0,0,0,0,0
2.973,-1.875,0,0,0,0,0
2.974,-2.8125,0,0,0,0,0
2.975,-3.75,0,0,0,0,0
2.976,-4.0625,0,0,0,0,0
2.977,-4.375,0,0,0,0,0
2.978,-4.375,0,0,0,0,0
2.979,-4.375,0,0,0,0,0
2.98,-5.625,0,0,0,0,0
2.981,-6.875,0,0,0,0,0
2.982,-7.1875,0,0,0,0,0
2.983,-7.5,0,0,0,0,0
2.984,-8.125,0,0,0,0,0
2.985,-8.75,0,0,0,0,0
2.986,-8.75,0,0,0,0,0
2.987,-8.75,0,0,0,0,0
2.988,-8.75,0,0,0,0,0
2.989,-8.75,0,0,0,0,0
2.99,-8.75,0,0,0,0,0
2.991,-8.75,0,0,0,0,0
2.992,-9.0625,0,0,0,0,0
2.993,-9.375,0,0,0,0,0
2.994,-9.375,0,0,0,0,0
2.995,-9.375,0,0,0,0,0
2.996,-9.6875,0,0,0,0,0
2.997,-10,0,0,0,0,0
2.998,-10,0,0,0,0,0
2.999,-10,0,0,0,0,0
3,-10,0,0,0,0,0
3.001,-10,0,0,0,0,0
3.002,-10,0,0,0,0,0
3.003,-10,0,0,0,0,0
3.004,-10.313,0,0,0,0,0
3.005,-10.625,0,0,0,0,0
3.006,-10.313,0,0,0,0,0
3.007,-10,0,0,0,0,0
3.008,-10.313,0,0,0,0,0
3.009,-10.625,0,0,0,0,0
3.01,-10.313,0,0,0,0,0
3.011,-10,0,0,0,0,0
3.012,-10,0,0,0,0,0
3.013,-10,0,0,0,0,0
3.014,-10.313,0,0,0,0,0
3.015,-10.625,0,0,0,0,0
3.016,-11.25,0,0,0,0,0
3.017,-11.875,0,0,0,0,0
3.018,-11.563,0,0,0,0,0
3.019,-11.25,0,0,0,0,0
3.02,-11.563,0,0,0,0,0
3.021,-11.875,0,0,0,0,0
3.022,-11.25,0,0,0,0,0
3.023,-10.625,0,0,0,0,0
3.024,-9.6875,0,0,0,0,0
3.025,-8.75,0,0,0,0,0
3.026,-8.4375,0,0,0,0,0
3.027,-7.5,0,0,0,0,0
3.028,-7.8125,0,0,0,0,0
3.029,-8.125,0,0,0,0,0
3.03,-9.375,0,0,0,0,0
3.031,-9.375,0,0,0,0,0
3.032,-7.5,0,0,0,0,0
3.033,-5.625,0,0,0,0,0
3.034,-4.0625,0,0,0,0,0
3.035,-3.125,0,0,0,0,0
3.036,-2.8125,0,0,0,0,0
3.037,-2.5,0,0,0,0,0
3.038,-1.875,0,0,0,0,0
3.039,-1.875,0,0,0,0,0
3.04,-1.875,0,0,0,0,0
3.041,-1.875,0,0,0,0,0
3.042,-1.25,0,0,0,0,0
3.043,-1.25,0,0,0,0,0
3.044,-1.5625,0,0,0,0,0
3.045,-1.25,0,0,0,0,0
3.046,-0.9375,0,0,0,0,0
3.047,-0.625,0,0,0,0,0
3.048,-0.625,0,0,0,0,0
3.049,0,0,0,0,0,0
3.05,0,0,0,0,0,0
3.051,0.625,0,0,0,0,0
3.052,0.3125,0,0,0,0,0
3.053,0,0,0,0,0,0
3.054,0.3125,0,0,0,0,0
3.055,0,0,0,0,0,0
3.056,0.625,0,0,0,0,0
3.057,0.625,0,0,0,0,0
3.058,0.3125,0,0,0,0,0
3.059,0,0,0,0,0,0
3.06,0.9375,0,0,0,0,0
3.061,2.5,0,0,0,0,0
3.062,2.5,0,0,0,0,0
3.063,3.125,0,0,0,0,0
3.064,3.125,0,0,0,0,0
3.065,3.125,0,0,0,0,0
3.066,3.4375,0,0,0,0,0
3.067,3.125,0,0,0,0,0
3.068,2.5,0,0,0,0,0
3.069,1.875,0,0,0,0,0
3.07,1.5625,0,0,0,0,0
3.071,1.875,0,0,0,0,0
3.072,1.875,0,0,0,0,0
3.073,1.875,0,0,0,0,0
3.074,1.25,0,0,0,0,0
3.075,1.25,0,0,0,0,0
3.076,1.5625,0,0,0,0,0
3.077,1.875,0,0,0,0,0
3.078,1.875,0,0,0,0,0
3.079,1.875,0,0,0,0,0
3.08,1.875,0,0,0,0,0
3.081,1.875,0,0,0,0,0
3.082,2.8125,0,0,0,0,0
3.083,2.5,0,0,0,0,0
3.084,2.8125,0,0,0,0,0
3.085,2.5,0,0,0,0,0
3.086,1.875,0,0,0,0,0
3.087,1.25,0,0,0,0,0
3.088,2.5,0,0,0,0,0
3.089,3.125,0,0,0,0,0
3.09,2.1875,0,0,0,0,0
3.091,1.875,0,0,0,0,0
3.092,3.125,0,0,0,0,0
3.093,3.125,0,0,0,0,0
3.094,3.4375,0,0,0,0,0
3.095,3.75,0,0,0,0,0
3.096,3.4375,0,0,0,0,0
3.097,3.125,0,0,0,0,0
3.098,3.4375,0,0,0,0,0
3.099,3.125,0,0,0,0,0
3.1,2.8125,0,0,0,0,0
3.101,2.5,0,0,0,0,0
3.102,1.875,0,0,0,0,0
3.103,1.875,0,0,0,0,0
3.104,2.8125,0,0,0,0,0
3.105,3.75,0,0,0,0,0
3.106,4.0625,0,0,0,0,0
3.107,4.375,0,0,0,0,0
3.108,5,0,0,0,0,0
3.109,5.625,0,0,0,0,0
3.11,5.625,0,0,0,0,0
3.111,5.625,0,0,0,0,0
3.112,5.625,0,0,0,0,0
3.113,5.625,0,0,0,0,0
3.114,5,0,0,0,0,0
3.115,5,0,0,0,0,0
3.116,4.6875,0,0,0,0,0
3.117,5,0,0,0,0,0
3.118,5.3125,0,0,0,0,0
3.119,5,0,0,0,0,0
3.12,5,0,0,0,0,0
3.121,5,0,0,0,0,0
3.122,4.6875,0,0,0,0,0
3.123,4.375,0,0,0,0,0
3.124,4.375,0,0,0,0,0
3.125,4.375,0,0,0,0,0
3.126,4.6875,0,0,0,0,0
3.127,4.375,0,0,0,0,0
3.128,4.375,0,0,0,0,0
3.129,4.375,0,0,0,0,0
3.13,4.0625,0,0,0,0,0
3.131,3.75,0,0,0,0,0
3.132,4.375,0,0,0,0,0
3.133,3.75,0,0,0,0,0
3.134,4.0625,0,0,0,0,0
3.135,4.375,0,0,0,0,0
3.136,4.0625,0,0,0,0,0
3.137,3.75,0,0,0,0,0
3.138,3.75,0,0,0,0,0
3.139,4.375,0,0,0,0,0
3.14,3.4375,0,0,0,0,0
3.141,3.125,0,0,0,0,0
3.142,3.125,0,0,0,0,0
3.143,3.125,0,0,0,0,0
3.144,3.4375,0,0,0,0,0
3.145,3.75,0,0,0,0,0
3.146,3.4375,0,0,0,0,0
3.147,3.125,0,0,0,0,0
3.148,3.125,0,0,0,0,0
3.149,3.125,0,0,0,0,0
3.15,3.4375,0,0,0,0,0
3.151,3.75,0,0,0,0,0
3.152,3.4375,0,0,0,0,0
3.153,3.125,0,0,0,0,0
3.154,3.125,0,0,0,0,0
3.155,3.125,0,0,0,0,0
3.156,4.0625,0,0,0,0,0
3.157,5,0,0,0,0,0
3.158,5,0,0,0,0,0
3.159,5,0,0,0,0,0
3.16,5.3125,0,0,0,0,0
3.161,5.625,0,0,0,0,0
3.162,5.625,0,0,0,0,0
3.163,5.625,0,0,0,0,0
3.164,5.625,0,0,0,0,0
3.165,5.625,0,0,0,0,0
3.166,6.5625,0,0,0,0,0
3.167,6.25,0,0,0,0,0
3.168,5.9375,0,0,0,0,0
3.169,6.25,0,0,0,0,0
3.17,5.625,0,0,0,0,0
3.171,5,0,0,0,0,0
3.172,4.6875,0,0,0,0,0
3.173,4.375,0,0,0,0,0
3.174,4.375,0,0,0,0,0
3.175,4.375,0,0,0,0,0
3.176,3.75,0,0,0,0,0
3.177,3.75,0,0,0,0,0
3.178,4.0625,0,0,0,0,0
3.179,3.75,0,0,0,0,0
3.18,4.0625,0,0,0,0,0
3.181,4.375,0,0,0,0,0
3.182,4.375,0,0,0,0,0
3.183,4.375,0,0,0,0,0
3.184,4.375,0,0,0,0,0
3.185,4.375,0,0,0,0,0
3.186,5,0,0,0,0,0
3.187,5.625,0,0,0,0,0
3.188,5.3125,0,0,0,0,0
3.189,5,0,0,0,0,0
3.19,5.3125,0,0,0,0,0
3.191,5.625,0,0,0,0,0
3.192,5.9375,0,0,0,0,0
3.193,6.25,0,0,0,0,0
3.194,6.25,0,0,0,0,0
3.195,6.25,0,0,0,0,0
3.196,5.625,0,0,0,0,0
3.197,5.625,0,0,0,0,0
3.198,5,0,0,0,0,0
3.199,5,0,0,0,0,0
3.2,5.3125,0,0,0,0,0
3.201,5.625,0,0,0,0,0
3.202,5.3125,0,0,0,0,0
3.203,5,0,0,0,0,0
3.204,5,0,0,0,0,0
3.205,5,0,0,0,0,0
3.206,5.625,0,0,0,0,0
3.207,5.625,0,0,0,0,0
3.208,6.25,0,0,0,0,0
3.209,6.25,0,0,0,0,0
3.21,6.25,0,0,0,0,0
3.211,6.25,0,0,0,0,0
3.212,6.25,0,0,0,0,0
3.213,6.25,0,0,0,0,0
3.214,6.25,0,0,0,0,0
3.215,6.25,0,0,0,0,0
3.216,6.25,0,0,0,0,0
3.217,6.25,0,0,0,0,0
3.218,5.625,0,0,0,0,0
3.219,5,0,0,0,0,0
3.22,5,0,0,0,0,0
3.221,5,0,0,0,0,0
3.222,4.6875,0,0,0,0,0
3.223,5,0,0,0,0,0
3.224,4.6875,0,0,0,0,0
3.225,5,0,0,0,0,0
3.226,5,0,0,0,0,0
3.227,5,0,0,0,0,0
3.228,5,0,0,0,0,0
3.229,5,0,0,0,0,0
3.23,5,0,0,0,0,0
3.231,5,0,0,0,0,0
3.232,5,0,0,0,0,0
3.233,5,0,0,0,0,0
3.234,4.0625,0,0,0,0,0
3.235,4.375,0,0,0,0,0
3.236,4.375,0,0,0,0,0
3.237,4.375,0,0,0,0,0
3.238,4.6875,0,0,0,0,0
3.239,5,0,0,0,0,0
3.24,5,0,0,0,0,0
3.241,5,0,0,0,0,0
3.242,5,0,0,0,0,0
3.243,5,0,0,0,0,0
3.244,5.3125,0,0,0,0,0
3.245,5,0,0,0,0,0
3.246,5,0,0,0,0,0
3.247,5,0,0,0,0,0
3.248,4.6875,0,0,0,0,0
3.249,5,0,0,0,0,0
3.25,4.0625,0,0,0,0,0
3.251,3.75,0,0,0,0,0
3.252,3.4375,0,0,0,0,0
3.253,3.75,0,0,0,0,0
3.254,3.4375,0,0,0,0,0
3.255,3.75,0,0,0,0,0
3.256,3.75,0,0,0,0,0
3.257,3.75,0,0,0,0,0
3.258,4.0625,0,0,0,0,0
3.259,4.375,0,0,0,0,0
3.26,4.375,0,0,0,0,0
3.261,4.375,0,0,0,0,0
3.262,4.0625,0,0,0,0,0
3.263,3.75,0,0,0,0,0
3.264,3.75,0,0,0,0,0
3.265,3.75,0,0,0,0,0
3.266,3.75,0,0,0,0,0
3.267,3.75,0,0,0,0,0
3.268,3.125,0,0,0,0,0
3.269,3.125,0,0,0,0,0
3.27,3.125,0,0,0,0,0
3.271,3.125,0,0,0,0,0
3.272,2.8125,0,0,0,0,0
3.273,2.5,0,0,0,0,0
3.274,2.5,0,0,0,0,0
3.275,2.5,0,0,0,0,0
3.276,2.5,0,0,0,0,0
3.277,2.5,0,0,0,0,0
3.278,2.5,0,0,0,0,0
3.279,3.125,0,0,0,0,0
3.28,3.125,0,0,0,0,0
3.281,3.125,0,0,0,0,0
3.282,3.125,0,0,0,0,0
3.283,3.125,0,0,0,0,0
3.284,3.4375,0,0,0,0,0
3.285,3.75,0,0,0,0,0
3.286,3.125,0,0,0,0,0
3.287,3.125,0,0,0,0,0
3.288,3.125,0,0,0,0,0
3.289,3.125,0,0,0,0,0
3.29,3.125,0,0,0,0,0
3.291,3.125,0,0,0,0,0
3.292,3.125,0,0,0,0,0
3.293,3.125,0,0,0,0,0
3.294,2.8125,0,0,0,0,0
3.295,2.5,0,0,0,0,0
3.296,2.8125,0,0,0,0,0
3.297,3.125,0,0,0,0,0
3.298,2.8125,0,0,0,0,0
3.299,2.5,0,0,0,0,0
3.3,2.5,0,0,0,0,0
3.301,2.5,0,0,0,0,0
3.302,2.8125,0,0,0,0,0
3.303,3.125,0,0,0,0,0
3.304,3.125,0,0,0,0,0
3.305,3.75,0,0,0,0,0
3.306,3.4375,0,0,0,0,0
3.307,3.75,0,0,0,0,0
3.308,4.0625,0,0,0,0,0
3.309,4.375,0,0,0,0,0
3.31,4.6875,0,0,0,0,0
3.311,5.625,0,0,0,0,0
3.312,5.625,0,0,0,0,0
3.313,5.625,0,0,0,0,0
3.314,5.625,0,0,0,0,0
3.315,5.625,0,0,0,0,0
3.316,6.25,0,0,0,0,0
3.317,6.25,0,0,0,0,0
3.318,5.9375,0,0,0,0,0
3.319,5.625,0,0,0,0,0
3.32,5.625,0,0,0,0,0
3.321,6.25,0,0,0,0,0
3.322,5.625,0,0,0,0,0
3.323,5.625,0,0,0,0,0
3.324,5.3125,0,0,0,0,0
3.325,5.625,0,0,0,0,0
3.326,5.3125,0,0,0,0,0
3.327,5.625,0,0,0,0,0
3.328,6.5625,0,0,0,0,0
3.329,7.5,0,0,0,0,0
3.33,7.1875,0,0,0,0,0
3.331,7.5,0,0,0,0,0
3.332,7.1875,0,0,0,0,0
3.333,7.5,0,0,0,0,0
3.334,7.1875,0,0,0,0,0
3.335,6.875,0,0,0,0,0
3.336,6.5625,0,0,0,0,0
3.337,6.25,0,0,0,0,0
3.338,6.25,0,0,0,0,0
3.339,6.25,0,0,0,0,0
3.34,6.25,0,0,0,0,0
3.341,6.25,0,0,0,0,0
3.342,5.625,0,0,0,0,0
3.343,5.625,0,0,0,0,0
3.344,6.875,0,0,0,0,0
3.345,7.5,0,0,0,0,0
3.346,7.8125,0,0,0,0,0
3.347,8.125,0,0,0,0,0
3.348,8.75,0,0,0,0,0
3.349,8.125,0,0,0,0,0
3.35,8.125,0,0,0,0,0
3.351,8.125,0,0,0,0,0
3.352,8.4375,0,0,0,0,0
3.353,8.75,0,0,0,0,0
3.354,8.4375,0,0,0,0,0
3.355,8.125,0,0,0,0,0
3.356,8.125,0,0,0,0,0
3.357,8.125,0,0,0,0,0
3.358,8.4375,0,0,0,0,0
3.359,8.125,0,0,0,0,0
3.36,7.8125,0,0,0,0,0
3.361,7.5,0,0,0,0,0
3.362,7.5,0,0,0,0,0
3.363,8.125,0,0,0,0,0
3.364,8.125,0,0,0,0,0
3.365,7.5,0,0,0,0,0
3.366,6.5625,0,0,0,0,0
3.367,6.25,0,0,0,0,0
3.368,6.5625,0,0,0,0,0
3.369,6.25,0,0,0,0,0
3.37,5.9375,0,0,0,0,0
3.371,5.625,0,0,0,0,0
3.372,5.9375,0,0,0,0,0
3.373,6.25,0,0,0,0,0
3.374,5.3125,0,0,0,0,0
3.375,5,0,0,0,0,0
3.376,5,0,0,0,0,0
3.377,5,0,0,0,0,0
3.378,5,0,0,0,0,0
3.379,4.375,0,0,0,0,0
3.38,4.375,0,0,0,0,0
3.381,4.375,0,0,0,0,0
3.382,3.75,0,0,0,0,0
3.383,3.75,0,0,0,0,0
3.384,3.4375,0,0,0,0,0
3.385,3.125,0,0,0,0,0
3.386,3.4375,0,0,0,0,0
3.387,3.75,0,0,0,0,0
3.388,3.4375,0,0,0,0,0
3.389,3.125,0,0,0,0,0
3.39,3.125,0,0,0,0,0
3.391,3.125,0,0,0,0,0
3.392,3.4375,0,0,0,0,0
3.393,3.75,0,0,0,0,0
3.394,3.125,0,0,0,0,0
3.395,3.125,0,0,0,0,0
3.396,3.125,0,0,0,0,0
3.397,3.75,0,0,0,0,0
3.398,3.125,0,0,0,0,0
3.399,3.125,0,0,0,0,0
3.4,3.4375,0,0,0,0,0
3.401,3.75,0,0,0,0,0
3.402,3.75,0,0,0,0,0
3.403,3.75,0,0,0,0,0
3.404,3.75,0,0,0,0,0
3.405,3.75,0,0,0,0,0
3.406,4.0625,0,0,0,0,0
3.407,4.375,0,0,0,0,0
3.408,4.375,0,0,0,0,0
3.409,4.375,0,0,0,0,0
3.41,4.0625,0,0,0,0,0
3.411,3.75,0,0,0,0,0
3.412,3.4375,0,0,0,0,0
3.413,3.125,0,0,0,0,0
3.414,3.4375,0,0,0,0,0
3.415,3.75,0,0,0,0,0
3.416,3.125,0,0,0,0,0
3.417,3.75,0,0,0,0,0
3.418,3.125,0,0,0,0,0
3.419,3.75,0,0,0,0,0
3.42,2.8125,0,0,0,0,0
3.421,2.5,0,0,0,0,0
3.422,2.5,0,0,0,0,0
3.423,2.5,0,0,0,0,0
3.424,2.5,0,0,0,0,0
3.425,2.5,0,0,0,0,0
3.426,2.5,0,0,0,0,0
3.427,2.5,0,0,0,0,0
3.428,2.1875,0,0,0,0,0
3.429,1.875,0,0,0,0,0
3.43,2.1875,0,0,0,0,0
3.431,2.5,0,0,0,0,0
3.432,2.5,0,0,0,0,0
3.433,1.875,0,0,0,0,0
3.434,2.5,0,0,0,0,0
3.435,2.5,0,0,0,0,0
3.436,2.5,0,0,0,0,0
3.437,2.5,0,0,0,0,0
3.438,2.1875,0,0,0,0,0
3.439,1.875,0,0,0,0,0
3.44,2.1875,0,0,0,0,0
3.441,2.5,0,0,0,0,0
3.442,2.5,0,0,0,0,0
3.443,2.5,0,0,0,0,0
3.444,2.1875,0,0,0,0,0
3.445,1.875,0,0,0,0,0
3.446,2.1875,0,0,0,0,0
3.447,2.5,0,0,0,0,0
3.448,2.1875,0,0,0,0,0
3.449,1.875,0,0,0,0,0
3.45,1.875,0,0,0,0,0
3.451,1.875,0,0,0,0,0
3.452,2.1875,0,0,0,0,0
3.453,2.5,0,0,0,0,0
3.454,2.5,0,0,0,0,0
3.455,2.5,0,0,0,0,0
3.456,2.1875,0,0,0,0,0
3.457,1.875,0,0,0,0,0
3.458,1.25,0,0,0,0,0
3.459,1.25,0,0,0,0,0
3.46,1.5625,0,0,0,0,0
3.461,1.25,0,0,0,0,0
3.462,1.25,0,0,0,0,0
3.463,1.25,0,0,0,0,0
3.464,1.5625,0,0,0,0,0
3.465,1.25,0,0,0,0,0
3.466,1.25,0,0,0,0,0
3.467,1.875,0,0,0,0,0
3.468,2.1875,0,0,0,0,0
3.469,1.875,0,0,0,0,0
3.47,2.1875,0,0,0,0,0
3.471,1.875,0,0,0,0,0
3.472,1.25,0,0,0,0,0
3.473,1.25,0,0,0,0,0
3.474,1.25,0,0,0,0,0
3.475,1.25,0,0,0,0,0
3.476,0.9375,0,0,0,0,0
3.477,0.625,0,0,0,0,0
3.478,0.9375,0,0,0,0,0
3.479,1.875,0,0,0,0,0
3.48,1.25,0,0,0,0,0
3.481,1.25,0,0,0,0,0
3.482,1.5625,0,0,0,0,0
3.483,1.875,1,0,0,0,0
3.484,1.25,0,0,0,0,0
3.485,1.25,0,0,0,0,0
3.486,1.5625,0,0,0,0,0
3.487,1.875,0,0,0,0,0
3.488,2.1875,0,0,0,0,0
3.489,1.875,0,0,0,0,0
3.49,2.5,0,0,0,0,0
3.491,2.5,0,0,0,0,0
3.492,2.5,0,0,0,0,0
3.493,3.75,0,0,0,0,0
3.494,4.375,0,0,0,0,0
3.495,5.625,0,0,0,0,0
3.496,7.8125,0,0,0,0,0
3.497,9.375,0,0,0,0,0
3.498,10,0,0,0,0,0
3.499,10.625,0,0,0,0,0
3.5,9.6875,0,0,0,0,0
3.501,10.625,0,0,0,0,0
3.502,11.875,0,0,0,0,0
3.503,14.375,0,0,0,0,0
3.504,15,0,0,0,0,0
3.505,16.25,0,0,0,0,0
3.506,16.875,0,0,0,0,0
3.507,18.75,0,0,0,0,0
3.508,20.313,0,0,0,0,0
3.509,21.875,0,0,0,0,0
3.51,23.438,0,0,0,0,0
3.511,25,0,0,0,0,0
3.512,26.875,0,0,0,0,0
3.513,29.375,0,0,0,0,0
3.514,32.5,0,1,0,0,0
3.515,34.375,0,0,0,0,0
3.516,35.938,0,0,0,0,0
3.517,36.875,0,0,0,0,0
3.518,37.813,0,0,0,0,0
3.519,38.125,0,0,0,0,0
3.52,38.438,0,0,0,0,0
3.521,38.125,0,0,0,0,0
3.522,36.25,0,0,0,0,0
3.523,35.625,0,0,0,0,0
3.524,34.375,0,0,0,0,0
3.525,33.125,0,0,0,0,0
3.526,31.25,0,0,0,0,0
3.527,28.75,0,0,0,0,0
3.528,27.188,0,0,0,0,0
3.529,25,0,0,0,0,0
3.53,21.563,0,0,0,0,0
3.531,17.5,0,0,0,0,0
3.532,14.375,0,0,0,0,0
3.533,10.625,0,0,0,0,0
3.534,3.75,0,0,0,0,0
3.535,-3.75,0,0,0,0,0
3.536,-9.6875,0,0,0,0,0
3.537,-14.375,0,0,0,0,0
3.538,-18.75,0,0,0,0,0
3.539,-21.875,0,0,0,0,0
3.54,-24.063,0,0,0,0,0
3.541,-25.625,0,0,0,0,0
3.542,-25.625,0,0,0,0,0
3.543,-25.625,0,0,0,0,0
3.544,-24.688,0,0,0,0,0
3.545,-22.5,0,0,0,0,0
3.546,-19.375,0,0,0,0,0
3.547,-17.5,0,0,0,0,0
3.548,-16.563,0,0,0,0,0
3.549,-16.25,0,0,0,0,0
3.55,-16.25,0,0,0,0,0
3.551,-15.625,0,0,0,0,0
3.552,-14.063,0,0,0,0,0
3.553,-13.125,0,0,0,0,0
3.554,-11.875,0,0,0,0,0
3.555,-10,0,0,0,0,0
3.556,-7.8125,0,0,0,0,0
3.557,-6.875,0,0,0,0,0
3.558,-5.9375,0,0,0,0,0
3.559,-5,0,0,0,0,0
3.56,-4.375,0,0,0,0,0
3.561,-3.75,0,0,0,0,0
3.562,-3.125,0,0,0,0,0
3.563,-3.125,0,0,0,0,0
3.564,-2.5,0,0,0,0,0
3.565,-2.5,0,0,0,0,0
3.566,-3.125,0,0,0,0,0
3.567,-3.125,0,0,0,0,0
3.568,-3.4375,0,0,0,0,0
3.569,-3.75,0,0,0,0,0
3.57,-3.4375,0,0,0,0,0
3.571,-3.125,0,0,0,0,0
3.572,-3.125,0,0,0,0,0
3.573,-3.125,0,0,0,0,0
3.574,-3.4375,0,0,0,0,0
3.575,-3.125,0,0,0,0,0
3.576,-2.8125,0,0,0,0,0
3.577,-2.5,0,0,0,0,0
3.578,-2.1875,0,0,0,0,0
3.579,-2.5,0,0,0,0,0
3.58,-2.8125,0,0,0,0,0
3.581,-3.125,0,0,0,0,0
3.582,-3.4375,0,0,0,0,0
3.583,-3.75,0,0,0,0,0
3.584,-3.4375,0,0,0,0,0
3.585,-3.75,0,0,0,0,0
3.586,-3.4375,0,0,0,0,0
3.587,-3.75,0,0,0,0,0
3.588,-4.0625,0,0,0,0,0
3.589,-4.375,0,0,0,0,0
3.59,-4.6875,0,0,0,0,0
3.591,-4.375,0,0,0,0,0
3.592,-4.0625,0,0,0,0,0
3.593,-3.75,0,0,0,0,0
3.594,-4.375,0,0,0,0,0
3.595,-4.375,0,0,0,0,0
3.596,-4.375,0,0,0,0,0
3.597,-5,0,0,0,0,0
3.598,-4.6875,0,0,0,0,0
3.599,-5,0,0,0,0,0
3.6,-5.3125,0,0,0,0,0
3.601,-5.625,0,0,0,0,0
3.602,-5,0,0,0,0,0
3.603,-5,0,0,0,0,0
3.604,-5.3125,0,0,0,0,0
3.605,-5.625,0,0,0,0,0
3.606,-5.9375,0,0,0,0,0
3.607,-5.625,0,0,0,0,0
3.608,-5.3125,0,0,0,0,0
3.609,-5,0,0,0,0,0
3.61,-5.3125,0,0,0,0,0
3.611,-5.625,0,0,0,0,0
3.612,-5.3125,0,0,0,0,0
3.613,-5,0,0,0,0,0
3.614,-5,0,0,0,0,0
3.615,-5.625,0,0,0,0,0
3.616,-5,0,0,0,0,0
3.617,-5,0,0,0,0,0
3.618,-4.6875,0,0,0,0,0
3.619,-5,0,0,0,0,0
3.62,-5,0,0,0,0,0
3.621,-5,0,0,0,0,0
3.622,-5.3125,0,0,0,0,0
3.623,-5,0,0,0,0,0
3.624,-5.3125,0,0,0,0,0
3.625,-5.625,0,0,0,0,0
3.626,-4.6875,0,0,0,0,0
3.627,-4.375,0,0,0,0,0
3.628,-3.75,0,0,0,0,0
3.629,-3.75,0,0,0,0,0
3.63,-3.75,0,0,0,0,0
3.631,-3.75,0,0,0,0,0
3.632,-3.4375,0,0,0,0,0
3.633,-3.125,0,0,0,0,0
3.634,-3.4375,0,0,0,0,0
3.635,-3.125,0,0,0,0,0
3.636,-2.1875,0,0,0,0,0
3.637,-1.875,0,0,0,0,0
3.638,-1.875,0,0,0,0,0
3.639,-1.875,0,0,0,0,0
3.64,-2.5,0,0,0,0,0
3.641,-2.5,0,0,0,0,0
3.642,-2.1875,0,0,0,0,0
3.643,-1.25,0,0,0,0,0
3.644,-1.5625,0,0,0,0,0
3.645,-1.875,0,0,0,0,0
3.646,-1.5625,0,0,0,0,0
3.647,-1.25,0,0,0,0,0
3.648,-0.9375,0,0,0,0,0
3.649,-0.625,0,0,0,0,0
3.65,-0.3125,0,0,0,0,0
3.651,0,0,0,0,0,0
3.652,0.625,0,0,0,0,0
3.653,1.25,0,0,0,0,0
3.654,1.25,0,0,0,0,0
3.655,1.25,0,0,0,0,0
3.656,1.25,0,0,0,0,0
3.657,1.25,0,0,0,0,0
3.658,1.25,0,0,0,0,0
3.659,1.25,0,0,0,0,0
3.66,1.25,0,0,0,0,0
3.661,1.25,0,0,0,0,0
3.662,0.9375,0,0,0,0,0
3.663,0.625,0,0,0,0,0
3.664,0.3125,0,0,0,0,0
3.665,0,0,0,0,0,0
3.666,-0.3125,0,0,0,0,0
3.667,0,0,0,0,0,0
3.668,0,0,0,1,0,0
3.669,0.625,0,0,0,0,0
3.67,0.9375,0,0,0,0,0
3.671,1.25,0,0,0,0,0
3.672,1.25,0,0,0,0,0
3.673,1.25,0,0,0,0,0
3.674,0.9375,0,0,0,0,0
3.675,0.625,0,0,0,0,0
3.676,0.9375,0,0,0,0,0
3.677,1.25,0,0,0,0,0
3.678,0.9375,0,0,0,0,0
3.679,0.625,0,0,0,0,0
3.68,0.625,0,0,0,0,0
3.681,0,0,0,0,0,0
3.682,0.9375,0,0,0,0,0
3.683,0.625,0,0,0,0,0
3.684,0.3125,0,0,0,0,0
3.685,0,0,0,0,0,0
3.686,0,0,0,0,0,0
3.687,0,0,0,0,0,0
3.688,-0.3125,0,0,0,0,0
3.689,-0.625,0,0,0,0,0
3.69,0.3125,0,0,0,0,0
3.691,0.625,0,0,0,0,0
3.692,0,0,0,0,0,0
3.693,0,0,0,0,0,0
3.694,0.3125,0,0,0,0,0
3.695,0.625,0,0,0,0,0
3.696,0.3125,0,0,0,0,0
3.697,0,0,0,0,0,0
3.698,0,0,0,0,0,0
3.699,0,0,0,0,0,0
3.7,0.625,0,0,0,0,0
3.701,0.625,0,0,0,0,0
3.702,0,0,0,0,0,0
3.703,0.625,0,0,0,0,0
3.704,-0.3125,0,0,0,0,0
3.705,0,0,0,0,0,0
3.706,0,0,0,0,0,0
3.707,0,0,0,0,0,0
3.708,-0.9375,0,0,0,0,0
3.709,-0.625,0,0,0,0,0
3.71,-0.625,0,0,0,0,0
3.711,-0.625,0,0,0,0,0
3.712,-1.25,0,0,0,0,0
3.713,-1.25,0,0,0,0,0
3.714,-1.25,0,0,0,0,0
3.715,-1.25,0,0,0,0,0
3.716,-0.9375,0,0,0,0,0
3.717,-0.625,0,0,0,0,0
3.718,-0.625,0,0,0,0,0
3.719,-0.625,0,0,0,0,0
3.72,-0.9375,0,0,0,0,0
3.721,-1.25,0,0,0,0,0
3.722,-0.625,0,0,0,0,0
3.723,0,0,0,0,0,0
3.724,-0.3125,0,0,0,0,0
3.725,-0.625,0,0,0,0,0
3.726,-0.625,0,0,0,0,0
3.727,-0.625,0,0,0,0,0
3.728,-0.625,0,0,0,0,0
3.729,-0.625,0,0,0,0,0
3.73,-0.625,0,0,0,0,0
3.731,-0.625,0,0,0,0,0
3.732,-0.3125,0,0,0,0,0
3.733,-0.625,0,0,0,0,0
3.734,-0.625,0,0,0,0,0
3.735,-0.625,0,0,0,0,0
3.736,-0.625,0,0,0,0,0
3.737,-0.625,0,0,0,0,0
3.738,-0.625,0,0,0,0,0
3.739,-1.25,0,0,0,0,0
3.74,-1.25,0,0,0,0,0
3.741,-1.25,0,0,0,0,0
3.742,-1.5625,0,0,0,0,0
3.743,-1.875,0,0,0,0,0
3.744,-1.875,0,0,0,0,0
3.745,-1.875,0,0,0,0,0
3.746,-1.5625,0,0,0,0,0
3.747,-1.875,0,0,0,0,0
3.748,-1.25,0,0,0,0,0
3.749,-1.25,0,0,0,0,0
3.75,-1.5625,0,0,0,0,0
3.751,-1.25,0,0,0,0,0
3.752,-1.25,0,0,0,0,0
3.753,-1.25,0,0,0,0,0
3.754,-1.5625,0,0,0,0,0
3.755,-1.875,0,0,0,0,0
3.756,-1.5625,0,0,0,0,0
3.757,-1.875,0,0,0,0,0
3.758,-2.1875,0,0,0,0,0
3.759,-2.5,0,0,0,0,0
3.76,-3.4375,0,0,0,0,0
3.761,-4.375,0,0,0,0,0
3.762,-4.0625,0,0,0,0,0
3.763,-4.375,0,0,0,0,0
3.764,-4.375,0,0,0,0,0
3.765,-4.375,0,0,0,0,0
3.766,-4.375,0,0,0,0,0
3.767,-4.375,0,0,0,0,0
3.768,-5,0,0,0,0,0
3.769,-5,0,0,0,0,0
3.77,-5.3125,0,0,0,0,0
3.771,-5,0,0,0,0,0
3.772,-4.375,0,0,0,0,0
3.773,-5,0,0,0,0,0
3.774,-5,0,0,0,0,0
3.775,-5,0,0,0,0,0
3.776,-4.6875,0,0,0,0,0
3.777,-5,0,0,0,0,0
3.778,-5.625,0,0,0,0,0
3.779,-6.25,0,0,0,0,0
3.78,-6.25,0,0,0,0,0
3.781,-6.25,0,0,0,0,0
3.782,-6.25,0,0,0,0,0
3.783,-6.25,0,0,0,0,0
3.784,-6.5625,0,0,0,0,0
3.785,-6.875,0,0,0,0,0
3.786,-7.5,0,0,0,0,0
3.787,-7.5,0,0,0,0,0
3.788,-6.875,0,0,0,0,0
3.789,-7.5,0,0,0,0,0
3.79,-7.1875,0,0,0,0,0
3.791,-6.875,0,0,0,0,0
3.792,-6.875,0,0,0,0,0
3.793,-6.875,0,0,0,0,0
3.794,-6.875,0,0,0,0,0
3.795,-7.5,0,0,0,0,0
3.796,-7.5,0,0,0,0,0
3.797,-7.5,0,0,0,0,0
3.798,-7.5,0,0,0,0,0
3.799,-7.5,0,0,0,0,0
3.8,-7.1875,0,0,0,1,0
3.801,-6.875,0,0,0,0,0
3.802,-7.1875,0,0,0,0,0
3.803,-7.5,0,0,0,0,0
3.804,-7.8125,0,0,0,0,0
3.805,-7.5,0,0,0,0,0
3.806,-7.5,0,0,0,0,0
3.807,-7.5,0,0,0,0,0
3.808,-7.8125,0,0,0,0,0
3.809,-8.125,0,0,0,0,0
3.81,-8.125,0,0,0,0,0
3.811,-8.125,0,0,0,0,0
3.812,-7.8125,0,0,0,0,0
3.813,-7.5,0,0,0,0,0
3.814,-7.5,0,0,0,0,0
3.815,-7.5,0,0,0,0,0
3.816,-6.5625,0,0,0,0,0
3.817,-6.25,0,0,0,0,0
3.818,-6.25,0,0,0,0,0
3.819,-6.25,0,0,0,0,0
3.82,-6.25,0,0,0,0,0
3.821,-6.25,0,0,0,0,0
3.822,-5.625,0,0,0,0,0
3.823,-5.625,0,0,0,0,0
3.824,-5.9375,0,0,0,0,0
3.825,-6.25,0,0,0,0,0
3.826,-5.625,0,0,0,0,0
3.827,-5.625,0,0,0,0,0
3.828,-5.9375,0,0,0,0,0
3.829,-5.625,0,0,0,0,0
3.83,-5,0,0,0,0,0
3.831,-5,0,0,0,0,0
3.832,-4.6875,0,0,0,0,0
3.833,-4.375,0,0,0,0,0
3.834,-4.0625,0,0,0,0,0
3.835,-3.125,0,0,0,0,0
3.836,-3.125,0,0,0,0,0
3.837,-2.5,0,0,0,0,0
3.838,-2.1875,0,0,0,0,0
3.839,-1.875,0,0,0,0,0
3.84,-1.875,0,0,0,0,0
3.841,-1.25,0,0,0,0,0
3.842,-1.5625,0,0,0,0,0
3.843,-1.25,0,0,0,0,0
3.844,-1.5625,0,0,0,0,0
3.845,-1.25,0,0,0,0,0
3.846,-1.25,0,0,0,0,0
3.847,-1.25,0,0,0,0,0
3.848,-1.25,0,0,0,0,0
3.849,-0.625,0,0,0,0,0
3.85,-0.625,0,0,0,0,0
3.851,-0.625,0,0,0,0,0
3.852,0.3125,0,0,0,0,0
3.853,0.625,0,0,0,0,0
3.854,0.3125,0,0,0,0,0
3.855,0.625,0,0,0,0,0
3.856,0.625,0,0,0,0,0
3.857,1.25,0,0,0,0,0
3.858,1.25,0,0,0,0,0
3.859,1.25,0,0,0,0,0
3.86,1.5625,0,0,0,0,0
3.861,1.875,0,0,0,0,0
3.862,1.875,0,0,0,0,0
3.863,2.5,0,0,0,0,0
3.864,2.5,0,0,0,0,0
3.865,2.5,0,0,0,0,0
3.866,2.1875,0,0,0,0,0
3.867,1.875,0,0,0,0,0
3.868,2.8125,0,0,0,0,0
3.869,3.125,0,0,0,0,0
3.87,2.8125,0,0,0,0,0
3.871,2.5,0,0,0,0,0
3.872,2.5,0,0,0,0,0
3.873,2.5,0,0,0,0,0
3.874,3.125,0,0,0,0,0
3.875,3.125,0,0,0,0,0
3.876,3.125,0,0,0,0,0
3.877,3.75,0,0,0,0,0
3.878,4.0625,0,0,0,0,0
3.879,3.75,0,0,0,0,0
3.88,3.4375,0,0,0,0,0
3.881,3.125,0,0,0,0,0
3.882,3.125,0,0,0,0,0
3.883,3.125,0,0,0,0,0
3.884,3.4375,0,0,0,0,0
3.885,3.75,0,0,0,0,0
3.886,3.75,0,0,0,0,0
3.887,3.75,0,0,0,0,0
3.888,4.0625,0,0,0,0,0
3.889,4.375,0,0,0,0,0
3.89,4.0625,0,0,0,0,0
3.891,4.375,0,0,0,0,0
3.892,4.375,0,0,0,0,0
3.893,4.375,0,0,0,0,0
3.894,4.0625,0,0,0,0,0
3.895,4.375,0,0,0,0,0
3.896,3.75,0,0,0,0,0
3.897,3.75,0,0,0,0,0
3.898,3.75,0,0,0,0,0
3.899,3.75,0,0,0,0,0
3.9,3.75,0,0,0,0,0
3.901,3.75,0,0,0,0,0
3.902,3.75,0,0,0,0,0
3.903,3.125,0,0,0,0,0
3.904,3.75,0,0,0,0,0
3.905,3.75,0,0,0,0,0
3.906,3.75,0,0,0,0,0
3.907,3.75,0,0,0,0,0
3.908,3.4375,0,0,0,0,0
3.909,3.125,0,0,0,0,0
3.91,4.0625,0,0,0,0,0
3.911,4.375,0,0,0,0,0
3.912,3.75,0,0,0,0,0
3.913,3.75,0,0,0,0,0
3.914,3.75,0,0,0,0,0
3.915,3.75,0,0,0,0,0
3.916,3.4375,0,0,0,0,0
3.917,3.125,0,0,0,0,0
3.918,3.4375,0,0,0,0,0
3.919,3.125,0,0,0,0,0
3.92,3.125,0,0,0,0,0
3.921,3.125,0,0,0,0,0
3.922,2.8125,0,0,0,0,0
3.923,2.5,0,0,0,0,0
3.924,3.125,0,0,0,0,0
3.925,3.125,0,0,0,0,0
3.926,3.125,0,0,0,0,0
3.927,2.5,0,0,0,0,1
3.928,2.8125,0,0,0,0,0
3.929,3.125,0,0,0,0,0
3.93,2.8125,0,0,0,0,0
3.931,2.5,0,0,0,0,0
3.932,2.5,0,0,0,0,0
3.933,2.5,0,0,0,0,0
3.934,2.1875,0,0,0,0,0
3.935,1.875,0,0,0,0,0
3.936,2.1875,0,0,0,0,0
3.937,3.125,0,0,0,0,0
3.938,2.1875,0,0,0,0,0
3.939,2.5,0,0,0,0,0
3.94,2.1875,0,0,0,0,0
3.941,2.5,0,0,0,0,0
3.942,2.5,0,0,0,0,0
3.943,2.5,0,0,0,0,0
3.944,2.5,0,0,0,0,0
3.945,2.5,0,0,0,0,0
3.946,2.1875,0,0,0,0,0
3.947,1.875,0,0,0,0,0
3.948,1.875,0,0,0,0,0
3.949,1.875,0,0,0,0,0
3.95,1.875,0,0,0,0,0
3.951,1.875,0,0,0,0,0
3.952,1.875,0,0,0,0,0
3.953,1.875,0,0,0,0,0
3.954,2.1875,0,0,0,0,0
3.955,2.5,0,0,0,0,0
3.956,2.5,0,0,0,0,0
3.957,3.125,0,0,0,0,0
3.958,3.4375,0,0,0,0,0
3.959,3.125,0,0,0,0,0
3.96,2.8125,0,0,0,0,0
3.961,3.125,0,0,0,0,0
3.962,3.125,0,0,0,0,0
3.963,3.125,0,0,0,0,0
3.964,3.125,0,0,0,0,0
3.965,2.5,0,0,0,0,0
3.966,3.125,0,0,0,0,0
3.967,3.125,0,0,0,0,0
3.968,3.125,0,0,0,0,0
3.969,3.125,0,0,0,0,0
3.97,3.4375,0,0,0,0,0
3.971,3.125,0,0,0,0,0
3.972,2.8125,0,0,0,0,0
3.973,3.125,0,0,0,0,0
3.974,3.125,0,0,0,0,0
3.975,3.125,0,0,0,0,0
3.976,2.5,0,0,0,0,0
3.977,2.5,0,0,0,0,0
3.978,2.1875,0,0,0,0,0
3.979,2.5,0,0,0,0,0
3.98,2.5,0,0,0,0,0
3.981,2.5,0,0,0,0,0
3.982,2.5,0,0,0,0,0
3.983,2.5,0,0,0,0,0
3.984,2.5,0,0,0,0,0
3.985,2.5,0,0,0,0,0
3.986,2.5,0,0,0,0,0
3.987,2.5,0,0,0,0,0
3.988,2.1875,0,0,0,0,0
3.989,1.875,0,0,0,0,0
3.99,2.5,0,0,0,0,0
3.991,2.5,0,0,0,0,0
3.992,2.8125,0,0,0,0,0
3.993,2.5,0,0,0,0,0
3.994,2.5,0,0,0,0,0
3.995,2.5,0,0,0,0,0
3.996,2.5,0,0,0,0,0
3.997,2.5,0,0,0,0,0
3.998,2.5,0,0,0,0,0
3.999,2.5,0,0,0,0,0
4,2.5,0,0,0,0,0
4.001,2.5,0,0,0,0,0
4.002,2.1875,0,0,0,0,0
4.003,2.5,0,0,0,0,0
4.004,2.1875,0,0,0,0,0
4.005,2.5,0,0,0,0,0
4.006,2.5,0,0,0,0,0
4.007,3.125,0,0,0,0,0
4.008,3.125,0,0,0,0,0
4.009,3.125,0,0,0,0,0
4.01,2.8125,0,0,0,0,0
4.011,2.5,0,0,0,0,0
4.012,2.8125,0,0,0,0,0
4.013,3.125,0,0,0,0,0
4.014,3.125,0,0,0,0,0
4.015,2.5,0,0,0,0,0
4.016,3.125,0,0,0,0,0
4.017,3.125,0,0,0,0,0
4.018,3.4375,0,0,0,0,0
4.019,3.125,0,0,0,0,0
4.02,3.125,0,0,0,0,0
4.021,3.125,0,0,0,0,0
4.022,3.125,0,0,0,0,0
4.023,3.125,0,0,0,0,0
4.024,3.75,0,0,0,0,0
4.025,3.75,0,0,0,0,0
4.026,3.75,0,0,0,0,0
4.027,3.75,0,0,0,0,0
4.028,4.0625,0,0,0,0,0
4.029,4.375,0,0,0,0,0
4.03,3.4375,0,0,0,0,0
4.031,3.125,0,0,0,0,0
4.032,2.8125,0,0,0,0,0
4.033,2.5,0,0,0,0,0
4.034,2.5,0,0,0,0,0
4.035,3.125,0,0,0,0,0
4.036,2.1875,0,0,0,0,0
4.037,2.5,0,0,0,0,0
4.038,1.875,0,0,0,0,0
4.039,1.875,0,0,0,0,0
4.04,2.5,0,0,0,0,0
4.041,2.5,0,0,0,0,0
4.042,2.8125,0,0,0,0,0
4.043,2.5,0,0,0,0,0
4.044,2.5,0,0,0,0,0
4.045,2.5,0,0,0,0,0
4.046,2.8125,0,0,0,0,0
4.047,3.125,0,0,0,0,0
4.048,2.8125,0,0,0,0,0
4.049,2.5,0,0,0,0,0
4.05,2.5,0,0,0,0,0
4.051,1.875,0,0,0,0,0
4.052,2.5,0,0,0,0,0
4.053,1.875,0,0,0,0,0
4.054,2.5,0,0,0,0,0
4.055,2.5,0,0,0,0,0
4.056,2.5,0,0,0,0,0
4.057,2.5,0,0,0,0,0
4.058,2.5,0,0,0,0,0
4.059,1.875,0,0,0,0,0
4.06,2.5,0,0,0,0,0
4.061,2.5,0,0,0,0,0
4.062,2.1875,0,0,0,0,0
4.063,1.875,0,0,0,0,0
4.064,2.1875,0,0,0,0,0
4.065,2.5,0,0,0,0,0
4.066,2.5,0,0,0,0,0
4.067,2.5,0,0,0,0,0
4.068,1.5625,0,0,0,0,0
4.069,1.875,0,0,0,0,0
4.07,1.875,0,0,0,0,0
4.071,1.875,0,0,0,0,0
4.072,1.5625,0,0,0,0,0
4.073,1.875,0,0,0,0,0
4.074,1.5625,0,0,0,0,0
4.075,1.875,0,0,0,0,0
4.076,2.1875,0,0,0,0,0
4.077,2.5,0,0,0,0,0
4.078,2.5,0,0,0,0,0
4.079,2.5,0,0,0,0,0
4.08,2.5,0,0,0,0,0
4.081,2.5,0,0,0,0,0
4.082,2.5,0,0,0,0,0
4.083,2.5,0,0,0,0,0
4.084,2.8125,0,0,0,0,0
4.085,3.125,0,0,0,0,0
4.086,3.125,0,0,0,0,0
4.087,3.125,0,0,0,0,0
4.088,3.125,0,0,0,0,0
4.089,3.125,0,0,0,0,0
4.09,3.125,0,0,0,0,0
4.091,3.125,0,0,0,0,0
4.092,2.8125,0,0,0,0,0
4.093,3.125,0,0,0,0,0
4.094,2.8125,0,0,0,0,0
4.095,3.125,0,0,0,0,0
4.096,2.8125,0,0,0,0,0
4.097,2.5,0,0,0,0,0
4.098,2.1875,0,0,0,0,0
4.099,2.5,0,0,0,0,0
4.1,2.8125,0,0,0,0,0
4.101,3.125,0,0,0,0,0
4.102,3.4375,0,0,0,0,0
4.103,3.75,0,0,0,0,0
4.104,4.375,0,0,0,0,0
4.105,4.375,0,0,0,0,0
4.106,4.0625,0,0,0,0,0
4.107,3.75,0,0,0,0,0
4.108,3.4375,0,0,0,0,0
4.109,3.75,0,0,0,0,0
4.11,3.4375,0,0,0,0,0
4.111,3.75,0,0,0,0,0
4.112,3.75,0,0,0,0,0
4.113,4.375,0,0,0,0,0
4.114,4.375,0,0,0,0,0
4.115,5,0,0,0,0,0
4.116,5.3125,0,0,0,0,0
4.117,5.625,0,0,0,0,0
4.118,5,0,0,0,0,0
4.119,5,0,0,0,0,0
4.12,5,0,0,0,0,0
4.121,5.625,0,0,0,0,0
4.122,5.3125,0,0,0,0,0
4.123,5,0,0,0,0,0
4.124,5,0,0,0,0,0
4.125,5,0,0,0,0,0
4.126,5,0,0,0,0,0
4.127,5,0,0,0,0,0
4.128,5.3125,0,0,0,0,0
4.129,5.625,0,0,0,0,0
4.13,5,0,0,0,0,0
4.131,5,0,0,0,0,0
4.132,5.3125,0,0,0,0,0
4.133,5,0,0,0,0,0
4.134,5,0,0,0,0,0
4.135,5,0,0,0,0,0
4.136,5.9375,0,0,0,0,0
4.137,5.625,0,0,0,0,0
4.138,5.625,0,0,0,0,0
4.139,5.625,0,0,0,0,0
4.14,5.3125,0,0,0,0,0
4.141,5,0,0,0,0,0
4.142,5,0,0,0,0,0
4.143,5,0,0,0,0,0
4.144,4.6875,0,0,0,0,0
4.145,4.375,0,0,0,0,0
4.146,5.3125,0,0,0,0,0
4.147,5.625,0,0,0,0,0
4.148,5.625,0,0,0,0,0
4.149,5.625,0,0,0,0,0
4.15,5,0,0,0,0,0
4.151,5,0,0,0,0,0
4.152,5.625,0,0,0,0,0
4.153,5.625,0,0,0,0,0
4.154,5.3125,0,0,0,0,0
4.155,5.625,0,0,0,0,0
4.156,5.3125,0,0,0,0,0
4.157,4.375,0,0,0,0,0
4.158,4.375,0,0,0,0,0
4.159,4.375,0,0,0,0,0
4.16,4.6875,0,0,0,0,0
4.161,5,0,0,0,0,0
4.162,4.375,0,0,0,0,0
4.163,4.375,0,0,0,0,0
4.164,4.0625,0,0,0,0,0
4.165,3.75,0,0,0,0,0
4.166,4.0625,0,0,0,0,0
4.167,3.75,0,0,0,0,0
4.168,3.4375,0,0,0,0,0
4.169,3.125,0,0,0,0,0
4.17,2.5,0,0,0,0,0
4.171,2.5,0,0,0,0,0
4.172,2.5,0,0,0,0,0
4.173,2.5,0,0,0,0,0
4.174,2.5,0,0,0,0,0
4.175,2.5,0,0,0,0,0
4.176,2.5,0,0,0,0,0
4.177,2.5,0,0,0,0,0
4.178,2.5,0,0,0,0,0
4.179,2.5,0,0,0,0,0
4.18,2.5,0,0,0,0,0
4.181,2.5,0,0,0,0,0
4.182,1.875,0,0,0,0,0
4.183,1.875,0,0,0,0,0
4.184,1.5625,0,0,0,0,0
4.185,1.875,0,0,0,0,0
4.186,1.25,0,0,0,0,0
4.187,1.25,0,0,0,0,0
4.188,0.9375,0,0,0,0,0
4.189,0.625,0,0,0,0,0
4.19,0.625,0,0,0,0,0
4.191,0.625,0,0,0,0,0
4.192,0.9375,0,0,0,0,0
4.193,1.25,0,0,0,0,0
4.194,0.9375,0,0,0,0,0
4.195,0.625,0,0,0,0,0
4.196,0.625,0,0,0,0,0
4.197,0.625,0,0,0,0,0
4.198,0.625,0,0,0,0,0
4.199,0.625,0,0,0,0,0
4.2,0.3125,0,0,0,0,0
4.201,0,0,0,0,0,0
4.202,0.3125,0,0,0,0,0
4.203,0.625,0,0,0,0,0
4.204,0,0,0,0,0,0
4.205,0.625,0,0,0,0,0
4.206,0,0,0,0,0,0
4.207,0.625,0,0,0,0,0
4.208,0,0,0,0,0,0
4.209,0,0,0,0,0,0
4.21,0,0,0,0,0,0
4.211,0,0,0,0,0,0
4.212,0.3125,0,0,0,0,0
4.213,0.625,0,0,0,0,0
4.214,0.625,0,0,0,0,0
4.215,0.625,0,0,0,0,0
4.216,0.625,0,0,0,0,0
4.217,0.625,0,0,0,0,0
4.218,0.625,0,0,0,0,0
4.219,0.625,0,0,0,0,0
4.22,0.9375,0,0,0,0,0
4.221,0.625,0,0,0,0,0
4.222,1.25,0,0,0,0,0
4.223,1.25,0,0,0,0,0
4.224,0.9375,0,0,0,0,0
4.225,0.625,0,0,0,0,0
4.226,0.9375,0,0,0,0,0
4.227,1.25,0,0,0,0,0
4.228,0.9375,0,0,0,0,0
4.229,0.625,0,0,0,0,0
4.23,0.9375,0,0,0,0,0
4.231,1.25,0,0,0,0,0
4.232,1.5625,0,0,0,0,0
4.233,1.875,0,0,0,0,0
4.234,1.875,0,0,0,0,0
4.235,1.875,0,0,0,0,0
4.236,1.875,0,0,0,0,0
4.237,1.875,0,0,0,0,0
4.238,1.5625,0,0,0,0,0
4.239,1.25,0,0,0,0,0
4.24,1.5625,0,0,0,0,0
4.241,1.875,0,0,0,0,0
4.242,1.875,0,0,0,0,0
4.243,1.875,0,0,0,0,0
4.244,1.875,0,0,0,0,0
4.245,1.875,0,0,0,0,0
4.246,1.25,0,0,0,0,0
4.247,1.25,0,0,0,0,0
4.248,1.5625,0,0,0,0,0
4.249,1.25,0,0,0,0,0
4.25,1.5625,0,0,0,0,0
4.251,1.875,0,0,0,0,0
4.252,2.1875,0,0,0,0,0
4.253,1.875,0,0,0,0,0
4.254,1.875,0,0,0,0,0
4.255,2.5,0,0,0,0,0
4.256,2.5,0,0,0,0,0
4.257,1.875,0,0,0,0,0
4.258,2.5,0,0,0,0,0
4.259,2.5,0,0,0,0,0
4.26,1.875,0,0,0,0,0
4.261,1.875,0,0,0,0,0
4.262,1.875,0,0,0,0,0
4.263,1.875,0,0,0,0,0
4.264,2.1875,0,0,0,0,0
4.265,2.5,0,0,0,0,0
4.266,2.1875,0,0,0,0,0
4.267,2.5,0,0,0,0,0
4.268,1.875,0,0,0,0,0
4.269,1.875,0,0,0,0,0
4.27,1.5625,1,0,0,0,0
4.271,1.25,0,0,0,0,0
4.272,0.3125,0,0,0,0,0
4.273,0,0,0,0,0,0
4.274,0,0,0,0,0,0
4.275,0,0,0,0,0,0
4.276,0.625,0,0,0,0,0
4.277,0.625,0,0,0,0,0
4.278,1.5625,0,0,0,0,0
4.279,1.875,0,0,0,0,0
4.28,2.1875,0,0,0,0,0
4.281,3.75,0,0,0,0,0
4.282,5,0,0,0,0,0
4.283,6.875,0,0,0,0,0
4.284,8.125,0,0,0,0,0
4.285,8.75,0,0,0,0,0
4.286,9.375,0,0,0,0,0
4.287,10,0,0,0,0,0
4.288,10.313,0,0,0,0,0
4.289,12.5,0,0,0,0,0
4.29,13.438,0,0,0,0,0
4.291,15.625,0,0,0,0,0
4.292,16.25,0,0,0,0,0
4.293,17.5,0,0,0,0,0
4.294,17.5,0,0,0,0,0
4.295,18.75,0,0,0,0,0
4.296,20.313,0,0,0,0,0
4.297,21.875,0,0,0,0,0
4.298,24.375,0,0,0,0,0
4.299,26.875,0,0,0,0,0
4.3,29.063,0,0,0,0,0
4.301,31.875,0,0,0,0,0
4.302,34.375,0,0,0,0,0
4.303,35.625,0,0,0,0,0
4.304,36.563,0,0,0,0,0
4.305,36.875,0,0,0,0,0
4.306,37.5,0,0,0,0,0
4.307,37.5,0,1,0,0,0
4.308,36.875,0,0,0,0,0
4.309,35.625,0,0,0,0,0
4.31,33.438,0,0,0,0,0
4.311,32.5,0,0,0,0,0
4.312,30,0,0,0,0,0
4.313,27.5,0,0,0,0,0
4.314,25.625,0,0,0,0,0
4.315,23.125,0,0,0,0,0
4.316,20.938,0,0,0,0,0
4.317,18.125,0,0,0,0,0
4.318,15.313,0,0,0,0,0
4.319,11.875,0,0,0,0,0
4.32,5.9375,0,0,0,0,0
4.321,-0.625,0,0,0,0,0
4.322,-6.25,0,0,0,0,0
4.323,-12.5,0,0,0,0,0
4.324,-17.5,0,0,0,0,0
4.325,-21.25,0,0,0,0,0
4.326,-24.063,0,0,0,0,0
4.327,-25.625,0,0,0,0,0
4.328,-26.25,0,0,0,0,0
4.329,-26.25,0,0,0,0,0
4.33,-25.313,0,0,0,0,0
4.331,-24.375,0,0,0,0,0
4.332,-23.125,0,0,0,0,0
4.333,-20.625,0,0,0,0,0
4.334,-18.125,0,0,0,0,0
4.335,-16.875,0,0,0,0,0
4.336,-15.625,0,0,0,0,0
4.337,-15,0,0,0,0,0
4.338,-14.063,0,0,0,0,0
4.339,-12.5,0,0,0,0,0
4.34,-11.25,0,0,0,0,0
4.341,-10.625,0,0,0,0,0
4.342,-9.375,0,0,0,0,0
4.343,-7.5,0,0,0,0,0
4.344,-5.3125,0,0,0,0,0
4.345,-4.375,0,0,0,0,0
4.346,-3.4375,0,0,0,0,0
4.347,-2.5,0,0,0,0,0
4.348,-2.8125,0,0,0,0,0
4.349,-3.125,0,0,0,0,0
4.35,-2.8125,0,0,0,0,0
4.351,-3.125,0,0,0,0,0
4.352,-2.1875,0,0,0,0,0
4.353,-1.875,0,0,0,0,0
4.354,-2.5,0,0,0,0,0
4.355,-2.5,0,0,0,0,0
4.356,-2.1875,0,0,0,0,0
4.357,-1.875,0,0,0,0,0
4.358,-1.875,0,0,0,0,0
4.359,-1.875,0,0,0,0,0
4.36,-1.5625,0,0,0,0,0
4.361,-1.25,0,0,0,0,0
4.362,-1.5625,0,0,0,0,0
4.363,-1.25,0,0,0,0,0
4.364,-1.25,0,0,0,0,0
4.365,-1.25,0,0,0,0,0
4.366,-1.25,0,0,0,0,0
4.367,-1.875,0,0,0,0,0
4.368,-2.1875,0,0,0,0,0
4.369,-2.5,0,0,0,0,0
4.37,-2.5,0,0,0,0,0
4.371,-2.5,0,0,0,0,0
4.372,-2.5,0,0,0,0,0
4.373,-3.125,0,0,0,0,0
4.374,-3.125,0,0,0,0,0
4.375,-3.75,0,0,0,0,0
4.376,-4.0625,0,0,0,0,0
4.377,-4.375,0,0,0,0,0
4.378,-4.0625,0,0,0,0,0
4.379,-3.125,0,0,0,0,0
4.38,-3.4375,0,0,0,0,0
4.381,-3.75,0,0,0,0,0
4.382,-4.0625,0,0,0,0,0
4.383,-3.75,0,0,0,0,0
4.384,-3.4375,0,0,0,0,0
4.385,-3.75,0,0,0,0,0
4.386,-3.75,0,0,0,0,0
4.387,-4.375,0,0,0,0,0
4.388,-4.6875,0,0,0,0,0
4.389,-5,0,0,0,0,0
4.39,-4.6875,0,0,0,0,0
4.391,-5,0,0,0,0,0
4.392,-5.3125,0,0,0,0,0
4.393,-5.625,0,0,0,0,0
4.394,-5.9375,0,0,0,0,0
4.395,-5.625,0,0,0,0,0
4.396,-5.9375,0,0,0,0,0
4.397,-6.25,0,0,0,0,0
4.398,-6.25,0,0,0,0,0
4.399,-6.25,0,0,0,0,0
4.4,-6.25,0,0,0,0,0
4.401,-6.25,0,0,0,0,0
4.402,-5.9375,0,0,0,0,0
4.403,-6.25,0,0,0,0,0
4.404,-5.3125,0,0,0,0,0
4.405,-5,0,0,0,0,0
4.406,-4.375,0,0,0,0,0
4.407,-4.375,0,0,0,0,0
4.408,-4.375,0,0,0,0,0
4.409,-4.375,0,0,0,0,0
4.41,-4.6875,0,0,0,0,0
4.411,-4.375,0,0,0,0,0
4.412,-4.375,0,0,0,0,0
4.413,-4.375,0,0,0,0,0
4.414,-3.75,0,0,0,0,0
4.415,-3.75,0,0,0,0,0
4.416,-3.4375,0,0,0,0,0
4.417,-3.75,0,0,0,0,0
4.418,-3.75,0,0,0,0,0
4.419,-3.75,0,0,0,0,0
4.42,-3.125,0,0,0,0,0
4.421,-2.5,0,0,0,0,0
4.422,-2.8125,0,0,0,0,0
4.423,-2.5,0,0,0,0,0
4.424,-1.875,0,0,0,0,0
4.425,-1.875,0,0,0,0,0
4.426,-1.875,0,0,0,0,0
4.427,-1.875,0,0,0,0,0
4.428,-1.875,0,0,0,0,0
4.429,-1.25,0,0,0,0,0
4.43,-1.5625,0,0,0,0,0
4.431,-1.25,0,0,0,0,0
4.432,-1.25,0,0,0,0,0
4.433,-1.25,0,0,0,0,0
4.434,-0.3125,0,0,0,0,0
4.435,0.625,0,0,0,0,0
4.436,0.9375,0,0,0,0,0
4.437,1.25,0,0,0,0,0
4.438,0.9375,0,0,0,0,0
4.439,0.625,0,0,0,0,0
4.44,0.9375,0,0,0,0,0
4.441,1.25,0,0,0,0,0
4.442,1.25,0,0,0,0,0
4.443,1.25,0,0,0,0,0
4.444,0.9375,0,0,0,0,0
4.445,0.625,0,0,0,0,0
4.446,0.625,0,0,0,0,0
4.447,0.625,0,0,0,0,0
4.448,0.3125,0,0,0,0,0
4.449,0,0,0,0,0,0
4.45,-0.3125,0,0,0,0,0
4.451,-0.625,0,0,0,0,0
4.452,-0.625,0,0,0,0,0
4.453,-0.625,0,0,0,0,0
4.454,-0.625,0,0,0,0,0
4.455,0,0,0,1,0,0
4.456,-0.625,0,0,0,0,0
4.457,-0.625,0,0,0,0,0
4.458,-0.625,0,0,0,0,0
4.459,-0.625,0,0,0,0,0
4.46,-0.625,0,0,0,0,0
4.461,-0.625,0,0,0,0,0
4.462,-0.625,0,0,0,0,0
4.463,-0.625,0,0,0,0,0
4.464,-0.9375,0,0,0,0,0
4.465,-1.25,0,0,0,0,0
4.466,-1.25,0,0,0,0,0
4.467,-1.25,0,0,0,0,0
4.468,-0.9375,0,0,0,0,0
4.469,-1.25,0,0,0,0,0
4.47,-0.3125,0,0,0,0,0
4.471,-0.625,0,0,0,0,0
4.472,-0.9375,0,0,0,0,0
4.473,-1.25,0,0,0,0,0
4.474,-0.9375,0,0,0,0,0
4.475,-0.625,0,0,0,0,0
4.476,-0.9375,0,0,0,0,0
4.477,-1.25,0,0,0,0,0
4.478,-0.3125,0,0,0,0,0
4.479,0,0,0,0,0,0
4.48,-0.9375,0,0,0,0,0
4.481,-1.25,0,0,0,0,0
4.482,-1.25,0,0,0,0,0
4.483,-1.25,0,0,0,0,0
4.484,-0.9375,0,0,0,0,0
4.485,-0.625,0,0,0,0,0
4.486,-0.625,0,0,0,0,0
4.487,-0.625,0,0,0,0,0
4.488,-0.3125,0,0,0,0,0
4.489,-0.625,0,0,0,0,0
4.49,-0.9375,0,0,0,0,0
4.491,0,0,0,0,0,0
4.492,-0.9375,0,0,0,0,0
4.493,-0.625,0,0,0,0,0
4.494,0,0,0,0,0,0
4.495,0.625,0,0,0,0,0
4.496,-0.3125,0,0,0,0,0
4.497,0,0,0,0,0,0
4.498,0,0,0,0,0,0
4.499,0,0,0,0,0,0
4.5,-0.3125,0,0,0,0,0
4.501,0,0,0,0,0,0
4.502,0,0,0,0,0,0
4.503,0,0,0,0,0,0
4.504,-0.3125,0,0,0,0,0
4.505,-0.625,0,0,0,0,0
4.506,-0.625,0,0,0,0,0
4.507,-0.625,0,0,0,0,0
4.508,-0.625,0,0,0,0,0
4.509,-0.625,0,0,0,0,0
4.51,-0.9375,0,0,0,0,0
4.511,-1.25,0,0,0,0,0
4.512,-1.25,0,0,0,0,0
4.513,-1.25,0,0,0,0,0
4.514,-1.25,0,0,0,0,0
4.515,-1.25,0,0,0,0,0
4.516,-1.25,0,0,0,0,0
4.517,-1.25,0,0,0,0,0
4.518,-1.25,0,0,0,0,0
4.519,-1.25,0,0,0,0,0
4.52,-0.9375,0,0,0,0,0
4.521,-1.25,0,0,0,0,0
4.522,-1.5625,0,0,0,0,0
4.523,-1.875,0,0,0,0,0
4.524,-1.875,0,0,0,0,0
4.525,-1.875,0,0,0,0,0
4.526,-1.25,0,0,0,0,0
4.527,-1.25,0,0,0,0,0
4.528,-1.25,0,0,0,0,0
4.529,-1.25,0,0,0,0,0
4.53,-1.25,0,0,0,0,0
4.531,-1.25,0,0,0,0,0
4.532,-1.5625,0,0,0,0,0
4.533,-1.875,0,0,0,0,0
4.534,-1.5625,0,0,0,0,0
4.535,-1.875,0,0,0,0,0
4.536,-1.25,0,0,0,0,0
4.537,-1.25,0,0,0,0,0
4.538,-2.1875,0,0,0,0,0
4.539,-2.5,0,0,0,0,0
4.54,-2.5,0,0,0,0,0
4.541,-2.5,0,0,0,0,0
4.542,-2.8125,0,0,0,0,0
4.543,-3.125,0,0,0,0,0
4.544,-2.8125,0,0,0,0,0
4.545,-3.125,0,0,0,0,0
4.546,-3.4375,0,0,0,0,0
4.547,-3.75,0,0,0,0,0
4.548,-3.75,0,0,0,0,0
4.549,-3.75,0,0,0,0,0
4.55,-3.125,0,0,0,0,0
4.551,-3.125,0,0,0,0,0
4.552,-3.4375,0,0,0,0,0
4.553,-3.75,0,0,0,0,0
4.554,-3.75,0,0,0,0,0
4.555,-3.75,0,0,0,0,0
4.556,-4.6875,0,0,0,0,0
4.557,-5,0,0,0,0,0
4.558,-5.9375,0,0,0,0,0
4.559,-6.25,0,0,0,0,0
4.56,-5.3125,0,0,0,0,0
4.561,-5.625,0,0,0,0,0
4.562,-5.9375,0,0,0,0,0
4.563,-6.25,0,0,0,0,0
4.564,-5.9375,0,0,0,0,0
4.565,-6.25,0,0,0,0,0
4.566,-5.625,0,0,0,0,0
4.567,-5,0,0,0,0,0
4.568,-5,0,0,0,0,0
4.569,-5,0,0,0,0,0
4.57,-5,0,0,0,0,0
4.571,-5,0,0,0,0,0
4.572,-5,0,0,0,0,0
4.573,-5,0,0,0,0,0
4.574,-5.625,0,0,0,0,0
4.575,-5.625,0,0,0,0,0
4.576,-5,0,0,0,0,0
4.577,-5.625,0,0,0,0,0
4.578,-5.3125,0,0,0,0,0
4.579,-5,0,0,0,0,0
4.58,-5.3125,0,0,0,0,0
4.581,-5.625,0,0,0,0,0
4.582,-5.625,0,0,0,0,0
4.583,-6.25,0,0,0,0,0
4.584,-6.25,0,0,0,0,0
4.585,-6.25,0,0,0,0,0
4.586,-6.25,0,0,0,0,0
4.587,-6.25,0,0,0,1,0
4.588,-5.9375,0,0,0,0,0
4.589,-5.625,0,0,0,0,0
4.59,-5.9375,0,0,0,0,0
4.591,-6.25,0,0,0,0,0
4.592,-6.5625,0,0,0,0,0
4.593,-6.25,0,0,0,0,0
4.594,-5.9375,0,0,0,0,0
4.595,-5.625,0,0,0,0,0
4.596,-5.625,0,0,0,0,0
4.597,-5.625,0,0,0,0,0
4.598,-5.9375,0,0,0,0,0
4.599,-6.25,0,0,0,0,0
4.6,-6.25,0,0,0,0,0
4.601,-6.25,0,0,0,0,0
4.602,-5.9375,0,0,0,0,0
4.603,-5.625,0,0,0,0,0
4.604,-4.6875,0,0,0,0,0
4.605,-4.375,0,0,0,0,0
4.606,-4.0625,0,0,0,0,0
4.607,-3.75,0,0,0,0,0
4.608,-4.375,0,0,0,0,0
4.609,-5,0,0,0,0,0
4.61,-4.6875,0,0,0,0,0
4.611,-5,0,0,0,0,0
4.612,-5.3125,0,0,0,0,0
4.613,-5.625,0,0,0,0,0
4.614,-4.375,0,0,0,0,0
4.615,-3.75,0,0,0,0,0
4.616,-3.75,0,0,0,0,0
4.617,-3.125,0,0,0,0,0
4.618,-2.8125,0,0,0,0,0
4.619,-3.125,0,0,0,0,0
4.62,-3.125,0,0,0,0,0
4.621,-3.125,0,0,0,0,0
4.622,-3.4375,0,0,0,0,0
4.623,-3.125,0,0,0,0,0
4.624,-3.125,0,0,0,0,0
4.625,-2.5,0,0,0,0,0
4.626,-2.1875,0,0,0,0,0
4.627,-1.875,0,0,0,0,0
4.628,-1.875,0,0,0,0,0
4.629,-1.25,0,0,0,0,0
4.63,-1.25,0,0,0,0,0
4.631,-0.625,0,0,0,0,0
4.632,-0.625,0,0,0,0,0
4.633,0,0,0,0,0,0
4.634,0,0,0,0,0,0
4.635,0,0,0,0,0,0
4.636,0,0,0,0,0,0
4.637,0.625,0,0,0,0,0
4.638,0.625,0,0,0,0,0
4.639,0.625,0,0,0,0,0
4.64,1.5625,0,0,0,0,0
4.641,1.875,0,0,0,0,0
4.642,2.1875,0,0,0,0,0
4.643,3.125,0,0,0,0,0
4.644,3.125,0,0,0,0,0
4.645,3.75,0,0,0,0,0
4.646,3.4375,0,0,0,0,0
4.647,3.125,0,0,0,0,0
4.648,3.4375,0,0,0,0,0
4.649,3.75,0,0,0,0,0
4.65,3.75,0,0,0,0,0
4.651,4.375,0,0,0,0,0
4.652,4.0625,0,0,0,0,0
4.653,3.75,0,0,0,0,0
4.654,3.4375,0,0,0,0,0
4.655,3.125,0,0,0,0,0
4.656,3.4375,0,0,0,0,0
4.657,3.125,0,0,0,0,0
4.658,3.4375,0,0,0,0,0
4.659,3.75,0,0,0,0,0
4.66,3.75,0,0,0,0,0
4.661,3.75,0,0,0,0,0
4.662,4.6875,0,0,0,0,0
4.663,5,0,0,0,0,0
4.664,5,0,0,0,0,0
4.665,5.625,0,0,0,0,0
4.666,5.9375,0,0,0,0,0
4.667,5.625,0,0,0,0,0
4.668,5.625,0,0,0,0,0
4.669,5.625,0,0,0,0,0
4.67,5.625,0,0,0,0,0
4.671,5.625,0,0,0,0,0
4.672,5.3125,0,0,0,0,0
4.673,5,0,0,0,0,0
4.674,5.3125,0,0,0,0,0
4.675,5.625,0,0,0,0,0
4.676,6.25,0,0,0,0,0
4.677,6.875,0,0,0,0,0
4.678,6.25,0,0,0,0,0
4.679,6.25,0,0,0,0,0
4.68,5.9375,0,0,0,0,0
4.681,5.625,0,0,0,0,0
4.682,5.3125,0,0,0,0,0
4.683,5.625,0,0,0,0,0
4.684,5.3125,0,0,0,0,0
4.685,5.625,0,0,0,0,0
4.686,5.625,0,0,0,0,0
4.687,5.625,0,0,0,0,0
4.688,5.625,0,0,0,0,0
4.689,5.625,0,0,0,0,0
4.69,5.9375,0,0,0,0,0
4.691,5.625,0,0,0,0,0
4.692,5.3125,0,0,0,0,0
4.693,4.375,0,0,0,0,0
4.694,4.375,0,0,0,0,0
4.695,4.375,0,0,0,0,0
4.696,4.0625,0,0,0,0,0
4.697,3.75,0,0,0,0,0
4.698,4.6875,0,0,0,0,0
4.699,5,0,0,0,0,0
4.7,4.6875,0,0,0,0,0
4.701,5,0,0,0,0,0
4.702,5,0,0,0,0,0
4.703,5,0,0,0,0,0
4.704,5,0,0,0,0,0
4.705,5,0,0,0,0,0
4.706,5.3125,0,0,0,0,0
4.707,5,0,0,0,0,0
4.708,5.3125,0,0,0,0,0
4.709,5.625,0,0,0,0,1
4.71,5.625,0,0,0,0,0
4.711,5.625,0,0,0,0,0
4.712,5.9375,0,0,0,0,0
4.713,5.625,0,0,0,0,0
4.714,5.625,0,0,0,0,0
4.715,5,0,0,0,0,0
4.716,5,0,0,0,0,0
4.717,5,0,0,0,0,0
4.718,4.6875,0,0,0,0,0
4.719,4.375,0,0,0,0,0
4.72,4.375,0,0,0,0,0
4.721,4.375,0,0,0,0,0
4.722,4.375,0,0,0,0,0
4.723,4.375,0,0,0,0,0
4.724,4.0625,0,0,0,0,0
4.725,4.375,0,0,0,0,0
4.726,3.4375,0,0,0,0,0
4.727,3.75,0,0,0,0,0
4.728,3.75,0,0,0,0,0
4.729,4.375,0,0,0,0,0
4.73,4.375,0,0,0,0,0
4.731,4.375,0,0,0,0,0
4.732,4.375,0,0,0,0,0
4.733,4.375,0,0,0,0,0
4.734,4.375,0,0,0,0,0
4.735,4.375,0,0,0,0,0
4.736,4.0625,0,0,0,0,0
4.737,3.75,0,0,0,0,0
4.738,3.75,0,0,0,0,0
4.739,3.75,0,0,0,0,0
4.74,3.75,0,0,0,0,0
4.741,3.75,0,0,0,0,0
4.742,4.0625,0,0,0,0,0
4.743,4.375,0,0,0,0,0
4.744,3.75,0,0,0,0,0
4.745,3.75,0,0,0,0,0
4.746,4.0625,0,0,0,0,0
4.747,3.75,0,0,0,0,0
4.748,3.4375,0,0,0,0,0
4.749,3.75,0,0,0,0,0
4.75,4.0625,0,0,0,0,0
4.751,4.375,0,0,0,0,0
4.752,4.6875,0,0,0,0,0
4.753,4.375,0,0,0,0,0
4.754,4.6875,0,0,0,0,0
4.755,4.375,0,0,0,0,0
4.756,4.0625,0,0,0,0,0
4.757,3.75,0,0,0,0,0
4.758,4.6875,0,0,0,0,0
4.759,5,0,0,0,0,0
4.76,4.375,0,0,0,0,0
4.761,4.375,0,0,0,0,0
4.762,4.0625,0,0,0,0,0
4.763,3.75,0,0,0,0,0
4.764,4.0625,0,0,0,0,0
4.765,5,0,0,0,0,0
4.766,4.6875,0,0,0,0,0
4.767,5,0,0,0,0,0
4.768,5,0,0,0,0,0
4.769,5,0,0,0,0,0
4.77,5,0,0,0,0,0
4.771,5,0,0,0,0,0
4.772,5,0,0,0,0,0
4.773,5,0,0,0,0,0
4.774,5.3125,0,0,0,0,0
4.775,5.625,0,0,0,0,0
4.776,5.3125,0,0,0,0,0
4.777,5,0,0,0,0,0
4.778,5.625,0,0,0,0,0
4.779,5.625,0,0,0,0,0
4.78,5.9375,0,0,0,0,0
4.781,5.625,0,0,0,0,0
4.782,5.625,0,0,0,0,0
4.783,5.625,0,0,0,0,0
4.784,5.3125,0,0,0,0,0
4.785,5,0,0,0,0,0
4.786,5,0,0,0,0,0
4.787,5,0,0,0,0,0
4.788,5,0,0,0,0,0
4.789,5,0,0,0,0,0
4.79,5,0,0,0,0,0
4.791,5.625,0,0,0,0,0
4.792,5,0,0,0,0,0
4.793,5,0,0,0,0,0
4.794,5,0,0,0,0,0
4.795,5.625,0,0,0,0,0
4.796,5.625,0,0,0,0,0
4.797,5.625,0,0,0,0,0
4.798,5.625,0,0,0,0,0
4.799,5.625,0,0,0,0,0
4.8,5.3125,0,0,0,0,0
4.801,5,0,0,0,0,0
4.802,5.3125,0,0,0,0,0
4.803,5,0,0,0,0,0
4.804,5.625,0,0,0,0,0
4.805,5.625,0,0,0,0,0
4.806,5.625,0,0,0,0,0
4.807,5,0,0,0,0,0
4.808,4.6875,0,0,0,0,0
4.809,4.375,0,0,0,0,0
4.81,4.0625,0,0,0,0,0
4.811,3.75,0,0,0,0,0
4.812,4.0625,0,0,0,0,0
4.813,3.75,0,0,0,0,0
4.814,3.75,0,0,0,0,0
4.815,3.75,0,0,0,0,0
4.816,4.0625,0,0,0,0,0
4.817,4.375,0,0,0,0,0
4.818,3.75,0,0,0,0,0
4.819,3.75,0,0,0,0,0
4.82,3.75,0,0,0,0,0
4.821,3.75,0,0,0,0,0
4.822,4.0625,0,0,0,0,0
4.823,5,0,0,0,0,0
4.824,4.0625,0,0,0,0,0
4.825,4.375,0,0,0,0,0
4.826,3.4375,0,0,0,0,0
4.827,3.125,0,0,0,0,0
4.828,3.75,0,0,0,0,0
4.829,3.75,0,0,0,0,0
4.83,4.0625,0,0,0,0,0
4.831,3.75,0,0,0,0,0
4.832,3.75,0,0,0,0,0
4.833,3.75,0,0,0,0,0
4.834,3.75,0,0,0,0,0
4.835,3.75,0,0,0,0,0
4.836,3.75,0,0,0,0,0
4.837,3.75,0,0,0,0,0
4.838,4.0625,0,0,0,0,0
4.839,3.75,0,0,0,0,0
4.84,4.375,0,0,0,0,0
4.841,3.75,0,0,0,0,0
4.842,4.375,0,0,0,0,0
4.843,4.375,0,0,0,0,0
4.844,4.375,0,0,0,0,0
4.845,4.375,0,0,0,0,0
4.846,4.6875,0,0,0,0,0
4.847,4.375,0,0,0,0,0
4.848,4.6875,0,0,0,0,0
4.849,4.375,0,0,0,0,0
4.85,4.0625,0,0,0,0,0
4.851,3.75,0,0,0,0,0
4.852,4.0625,0,0,0,0,0
4.853,4.375,0,0,0,0,0
4.854,4.6875,0,0,0,0,0
4.855,5,0,0,0,0,0
4.856,4.375,0,0,0,0,0
4.857,5,0,0,0,0,0
4.858,5,0,0,0,0,0
4.859,5,0,0,0,0,0
4.86,4.375,0,0,0,0,0
4.861,4.375,0,0,0,0,0
4.862,5,0,0,0,0,0
4.863,4.375,0,0,0,0,0
4.864,4.6875,0,0,0,0,0
4.865,5,0,0,0,0,0
4.866,5,0,0,0,0,0
4.867,5,0,0,0,0,0
4.868,5,0,0,0,0,0
4.869,5,0,0,0,0,0
4.87,4.6875,0,0,0,0,0
4.871,4.375,0,0,0,0,0
4.872,4.6875,0,0,0,0,0
4.873,5,0,0,0,0,0
4.874,4.6875,0,0,0,0,0
4.875,4.375,0,0,0,0,0
4.876,3.75,0,0,0,0,0
4.877,3.125,0,0,0,0,0
4.878,3.4375,0,0,0,0,0
4.879,3.75,0,0,0,0,0
4.88,3.4375,0,0,0,0,0
4.881,3.125,0,0,0,0,0
4.882,3.75,0,0,0,0,0
4.883,3.75,0,0,0,0,0
4.884,4.0625,0,0,0,0,0
4.885,3.75,0,0,0,0,0
4.886,4.0625,0,0,0,0,0
4.887,4.375,0,0,0,0,0
4.888,4.6875,0,0,0,0,0
4.889,4.375,0,0,0,0,0
4.89,4.375,0,0,0,0,0
4.891,4.375,0,0,0,0,0
4.892,4.0625,0,0,0,0,0
4.893,4.375,0,0,0,0,0
4.894,5,0,0,0,0,0
4.895,5.625,0,0,0,0,0
4.896,5.625,0,0,0,0,0
4.897,5.625,0,0,0,0,0
4.898,6.25,0,0,0,0,0
4.899,5.625,0,0,0,0,0
4.9,5.625,0,0,0,0,0
4.901,5.625,0,0,0,0,0
4.902,6.25,0,0,0,0,0
4.903,6.25,0,0,0,0,0
4.904,6.875,0,0,0,0,0
4.905,6.875,0,0,0,0,0
4.906,7.5,0,0,0,0,0
4.907,7.5,0,0,0,0,0
4.908,7.1875,0,0,0,0,0
4.909,6.875,0,0,0,0,0
4.91,7.1875,0,0,0,0,0
4.911,6.875,0,0,0,0,0
4.912,6.875,0,0,0,0,0
4.913,6.875,0,0,0,0,0
4.914,7.1875,0,0,0,0,0
4.915,7.5,0,0,0,0,0
4.916,7.5,0,0,0,0,0
4.917,7.5,0,0,0,0,0
4.918,8.125,0,0,0,0,0
4.919,8.125,0,0,0,0,0
4.92,7.5,0,0,0,0,0
4.921,7.5,0,0,0,0,0
4.922,7.5,0,0,0,0,0
4.923,7.5,0,0,0,0,0
4.924,7.5,0,0,0,0,0
4.925,8.125,0,0,0,0,0
4.926,7.5,0,0,0,0,0
4.927,7.5,0,0,0,0,0
4.928,7.1875,0,0,0,0,0
4.929,6.875,0,0,0,0,0
4.93,7.1875,0,0,0,0,0
4.931,7.5,0,0,0,0,0
4.932,7.5,0,0,0,0,0
4.933,7.5,0,0,0,0,0
4.934,7.5,0,0,0,0,0
4.935,7.5,0,0,0,0,0
4.936,7.1875,0,0,0,0,0
4.937,7.5,0,0,0,0,0
4.938,7.1875,0,0,0,0,0
4.939,6.875,0,0,0,0,0
4.94,7.5,0,0,0,0,0
4.941,7.5,0,0,0,0,0
4.942,7.1875,0,0,0,0,0
4.943,6.875,0,0,0,0,0
4.944,6.25,0,0,0,0,0
4.945,5.625,0,0,0,0,0
4.946,5.3125,0,0,0,0,0
4.947,5.625,0,0,0,0,0
4.948,5.625,0,0,0,0,0
4.949,5.625,0,0,0,0,0
4.95,5.625,0,0,0,0,0
4.951,5,0,0,0,0,0
4.952,5,0,0,0,0,0
4.953,5,0,0,0,0,0
4.954,5,0,0,0,0,0
4.955,5,0,0,0,0,0
4.956,4.375,0,0,0,0,0
4.957,4.375,0,0,0,0,0
4.958,4.375,0,0,0,0,0
4.959,3.75,0,0,0,0,0
4.96,3.4375,0,0,0,0,0
4.961,3.125,0,0,0,0,0
4.962,3.125,0,0,0,0,0
4.963,3.125,0,0,0,0,0
4.964,3.4375,0,0,0,0,0
4.965,3.75,0,0,0,0,0
4.966,3.75,0,0,0,0,0
4.967,3.75,0,0,0,0,0
4.968,4.0625,0,0,0,0,0
4.969,4.375,0,0,0,0,0
4.97,3.75,0,0,0,0,0
4.971,2.5,0,0,0,0,0
4.972,2.5,0,0,0,0,0
4.973,2.5,0,0,0,0,0
4.974,3.4375,0,0,0,0,0
4.975,3.125,0,0,0,0,0
4.976,2.8125,0,0,0,0,0
4.977,2.5,0,0,0,0,0
4.978,1.875,0,0,0,0,0
4.979,1.25,0,0,0,0,0
4.98,1.25,0,0,0,0,0
4.981,1.25,0,0,0,0,0
4.982,0.9375,0,0,0,0,0
4.983,0.625,0,0,0,0,0
4.984,0.9375,0,0,0,0,0
4.985,1.25,0,0,0,0,0
4.986,1.25,0,0,0,0,0
4.987,1.25,0,0,0,0,0
4.988,1.25,0,0,0,0,0
4.989,1.25,0,0,0,0,0
4.99,1.25,0,0,0,0,0
4.991,1.25,0,0,0,0,0
4.992,1.25,0,0,0,0,0
4.993,0.625,0,0,0,0,0
4.994,1.5625,0,0,0,0,0
4.995,1.25,0,0,0,0,0
4.996,1.875,0,0,0,0,0
4.997,1.25,0,0,0,0,0
4.998,0.9375,0,0,0,0,0
4.999,0.625,0,0,0,0,0
5,0.9375,0,0,0,0,0
5.001,1.25,0,0,0,0,0
5.002,1.5625,0,0,0,0,0
5.003,1.875,0,0,0,0,0
5.004,1.875,0,0,0,0,0
5.005,1.875,0,0,0,0,0
5.006,1.5625,0,0,0,0,0
5.007,1.25,0,0,0,0,0
5.008,1.5625,0,0,0,0,0
5.009,1.875,0,0,0,0,0
5.01,0.9375,0,0,0,0,0
5.011,1.25,0,0,0,0,0
5.012,1.5625,0,0,0,0,0
5.013,1.875,0,0,0,0,0
5.014,1.5625,0,0,0,0,0
5.015,1.25,0,0,0,0,0
5.016,1.25,0,0,0,0,0
5.017,1.25,0,0,0,0,0
5.018,0.9375,0,0,0,0,0
5.019,0.625,0,0,0,0,0
5.02,0.625,0,0,0,0,0
5.021,0.625,0,0,0,0,0
5.022,0.9375,0,0,0,0,0
5.023,1.25,0,0,0,0,0
5.024,1.25,0,0,0,0,0
5.025,1.25,0,0,0,0,0
5.026,1.5625,0,0,0,0,0
5.027,1.875,0,0,0,0,0
5.028,1.5625,0,0,0,0,0
5.029,1.25,0,0,0,0,0
5.03,1.5625,0,0,0,0,0
5.031,1.875,0,0,0,0,0
5.032,1.5625,0,0,0,0,0
5.033,1.25,0,0,0,0,0
5.034,1.5625,0,0,0,0,0
5.035,1.25,0,0,0,0,0
5.036,1.25,0,0,0,0,0
5.037,1.875,0,0,0,0,0
5.038,2.1875,0,0,0,0,0
5.039,2.5,0,0,0,0,0
5.04,2.1875,0,0,0,0,0
5.041,2.5,0,0,0,0,0
5.042,2.1875,0,0,0,0,0
5.043,1.875,0,0,0,0,0
5.044,2.5,0,0,0,0,0
5.045,2.5,0,0,0,0,0
5.046,1.875,0,0,0,0,0
5.047,2.5,0,0,0,0,0
5.048,2.5,0,0,0,0,0
5.049,1.875,0,0,0,0,0
5.05,2.5,0,0,0,0,0
5.051,3.125,0,0,0,0,0
5.052,3.125,0,0,0,0,0
5.053,3.125,0,0,0,0,0
5.054,2.5,0,0,0,0,0
5.055,1.875,0,0,0,0,0
5.056,3.125,0,0,0,0,0
5.057,3.125,0,0,0,0,0
5.058,3.125,0,0,0,0,0
5.059,3.125,0,0,0,0,0
5.06,3.75,0,0,0,0,0
5.061,3.75,0,0,0,0,0
5.062,3.75,0,0,0,0,0
5.063,3.75,1,0,0,0,0
5.064,3.125,0,0,0,0,0
5.065,3.125,0,0,0,0,0
5.066,2.5,0,0,0,0,0
5.067,2.5,0,0,0,0,0
5.068,2.1875,0,0,0,0,0
5.069,1.875,0,0,0,0,0
5.07,1.875,0,0,0,0,0
5.071,1.25,0,0,0,0,0
5.072,2.8125,0,0,0,0,0
5.073,5,0,0,0,0,0
5.074,6.875,0,0,0,0,0
5.075,8.125,0,0,0,0,0
5.076,8.75,0,0,0,0,0
5.077,8.75,0,0,0,0,0
5.078,10.625,0,0,0,0,0
5.079,11.25,0,0,0,0,0
5.08,13.125,0,0,0,0,0
5.081,13.75,0,0,0,0,0
5.082,15,0,0,0,0,0
5.083,15.625,0,0,0,0,0
5.084,17.5,0,0,0,0,0
5.085,18.75,0,0,0,0,0
5.086,19.063,0,0,0,0,0
5.087,20,0,0,0,0,0
5.088,21.875,0,0,0,0,0
5.089,23.75,0,0,0,0,0
5.09,26.25,0,0,0,0,0
5.091,29.375,0,0,0,0,0
5.092,31.563,0,0,0,0,0
5.093,33.125,0,0,0,0,0
5.094,33.438,0,0,0,0,0
5.095,33.75,0,1,0,0,0
5.096,34.375,0,0,0,0,0
5.097,34.375,0,0,0,0,0
5.098,33.438,0,0,0,0,0
5.099,31.875,0,0,0,0,0
5.1,30.938,0,0,0,0,0
5.101,29.375,0,0,0,0,0
5.102,28.125,0,0,0,0,0
5.103,26.25,0,0,0,0,0
5.104,24.375,0,0,0,0,0
5.105,23.125,0,0,0,0,0
5.106,21.25,0,0,0,0,0
5.107,18.75,0,0,0,0,0
5.108,16.25,0,0,0,0,0
5.109,13.75,0,0,0,0,0
5.11,11.25,0,0,0,0,0
5.111,6.25,0,0,0,0,0
5.112,-1.875,0,0,0,0,0
5.113,-8.125,0,0,0,0,0
5.114,-12.813,0,0,0,0,0
5.115,-16.875,0,0,0,0,0
5.116,-20.625,0,0,0,0,0
5.117,-23.125,0,0,0,0,0
5.118,-24.688,0,0,0,0,0
5.119,-25,0,0,0,0,0
5.12,-25.313,0,0,0,0,0
5.121,-25,0,0,0,0,0
5.122,-22.188,0,0,0,0,0
5.123,-19.375,0,0,0,0,0
5.124,-17.188,0,0,0,0,0
5.125,-15,0,0,0,0,0
5.126,-14.375,0,0,0,0,0
5.127,-13.75,0,0,0,0,0
5.128,-12.813,0,0,0,0,0
5.129,-11.875,0,0,0,0,0
5.13,-10.938,0,0,0,0,0
5.131,-9.375,0,0,0,0,0
5.132,-7.8125,0,0,0,0,0
5.133,-6.25,0,0,0,0,0
5.134,-5.625,0,0,0,0,0
5.135,-4.375,0,0,0,0,0
5.136,-2.8125,0,0,0,0,0
5.137,-1.875,0,0,0,0,0
5.138,-1.25,0,0,0,0,0
5.139,-0.625,0,0,0,0,0
5.14,-0.9375,0,0,0,0,0
5.141,-0.625,0,0,0,0,0
5.142,0,0,0,0,0,0
5.143,0,0,0,0,0,0
5.144,0,0,0,0,0,0
5.145,0,0,0,0,0,0
5.146,0,0,0,0,0,0
5.147,0,0,0,0,0,0
5.148,0.3125,0,0,0,0,0
5.149,0.625,0,0,0,0,0
5.15,0,0,0,0,0,0
5.151,-0.625,0,0,0,0,0
5.152,-0.3125,0,0,0,0,0
5.153,-0.625,0,0,0,0,0
5.154,0,0,0,0,0,0
5.155,0.625,0,0,0,0,0
5.156,0.3125,0,0,0,0,0
5.157,0.625,0,0,0,0,0
5.158,0.625,0,0,0,0,0
5.159,0.625,0,0,0,0,0
5.16,0.3125,0,0,0,0,0
5.161,0,0,0,0,0,0
5.162,-0.9375,0,0,0,0,0
5.163,-1.25,0,0,0,0,0
5.164,-1.875,0,0,0,0,0
5.165,-1.875,0,0,0,0,0
5.166,-1.875,0,0,0,0,0
5.167,-1.875,0,0,0,0,0
5.168,-1.25,0,0,0,0,0
5.169,-1.25,0,0,0,0,0
5.17,-1.25,0,0,0,0,0
5.171,-1.875,0,0,0,0,0
5.172,-1.5625,0,0,0,0,0
5.173,-1.25,0,0,0,0,0
5.174,-2.1875,0,0,0,0,0
5.175,-2.5,0,0,0,0,0
5.176,-3.4375,0,0,0,0,0
5.177,-3.75,0,0,0,0,0
5.178,-3.4375,0,0,0,0,0
5.179,-3.125,0,0,0,0,0
5.18,-3.75,0,0,0,0,0
5.181,-3.75,0,0,0,0,0
5.182,-3.75,0,0,0,0,0
5.183,-3.75,0,0,0,0,0
5.184,-3.125,0,0,0,0,0
5.185,-3.125,0,0,0,0,0
5.186,-3.4375,0,0,0,0,0
5.187,-3.75,0,0,0,0,0
5.188,-3.4375,0,0,0,0,0
5.189,-3.125,0,0,0,0,0
5.19,-3.125,0,0,0,0,0
5.191,-3.125,0,0,0,0,0
5.192,-3.75,0,0,0,0,0
5.193,-3.125,0,0,0,0,0
5.194,-3.4375,0,0,0,0,0
5.195,-3.125,0,0,0,0,0
5.196,-3.4375,0,0,0,0,0
5.197,-3.75,0,0,0,0,0
5.198,-3.4375,0,0,0,0,0
5.199,-3.125,0,0,0,0,0
5.2,-2.8125,0,0,0,0,0
5.201,-3.125,0,0,0,0,0
5.202,-3.125,0,0,0,0,0
5.203,-2.5,0,0,0,0,0
5.204,-2.5,0,0,0,0,0
5.205,-1.875,0,0,0,0,0
5.206,-1.875,0,0,0,0,0
5.207,-1.875,0,0,0,0,0
5.208,-2.1875,0,0,0,0,0
5.209,-1.875,0,0,0,0,0
5.21,-0.625,0,0,0,0,0
5.211,-0.625,0,0,0,0,0
5.212,-0.625,0,0,0,0,0
5.213,0,0,0,0,0,0
5.214,0,0,0,0,0,0
5.215,0,0,0,0,0,0
5.216,-0.3125,0,0,0,0,0
5.217,-0.625,0,0,0,0,0
5.218,0,0,0,0,0,0
5.219,0,0,0,0,0,0
5.22,0.625,0,0,0,0,0
5.221,0.625,0,0,0,0,0
5.222,0.625,0,0,0,0,0
5.223,1.25,0,0,0,0,0
5.224,1.875,0,0,0,0,0
5.225,1.875,0,0,0,0,0
5.226,1.875,0,0,0,0,0
5.227,1.875,0,0,0,0,0
5.228,1.875,0,0,0,0,0
5.229,1.875,0,0,0,0,0
5.23,2.1875,0,0,0,0,0
5.231,2.5,0,0,0,0,0
5.232,2.5,0,0,0,0,0
5.233,2.5,0,0,0,0,0
5.234,2.1875,0,0,0,0,0
5.235,1.875,0,0,0,0,0
5.236,1.875,0,0,0,0,0
5.237,1.875,0,0,0,0,0
5.238,2.1875,0,0,0,0,0
5.239,2.5,0,0,0,0,0
5.24,2.5,0,0,0,0,0
5.241,2.5,0,0,0,0,0
5.242,2.1875,0,0,0,0,0
5.243,1.875,0,0,0,0,0
5.244,2.5,0,0,0,0,0
5.245,1.875,0,0,0,0,0
5.246,1.875,0,0,0,0,0
5.247,1.875,0,0,0,0,0
5.248,1.875,0,0,0,0,0
5.249,1.875,0,0,0,0,0
5.25,2.1875,0,0,0,0,0
5.251,2.5,0,0,0,0,0
5.252,2.5,0,0,0,0,0
5.253,2.5,0,0,0,0,0
5.254,2.8125,0,0,0,0,0
5.255,3.125,0,0,0,0,0
5.256,2.8125,0,0,0,0,0
5.257,2.5,0,0,0,0,0
5.258,1.5625,0,0,0,0,0
5.259,1.875,0,0,0,0,0
5.26,1.5625,0,0,0,0,0
5.261,1.875,0,0,0,0,0
5.262,2.1875,0,0,0,0,0
5.263,2.5,0,0,0,0,0
5.264,2.5,0,0,1,0,0
5.265,2.5,0,0,0,0,0
5.266,2.1875,0,0,0,0,0
5.267,2.5,0,0,0,0,0
5.268,2.8125,0,0,0,0,0
5.269,2.5,0,0,0,0,0
5.27,2.5,0,0,0,0,0
5.271,2.5,0,0,0,0,0
5.272,2.5,0,0,0,0,0
5.273,2.5,0,0,0,0,0
5.274,2.5,0,0,0,0,0
5.275,2.5,0,0,0,0,0
5.276,2.5,0,0,0,0,0
5.277,3.125,0,0,0,0,0
5.278,3.4375,0,0,0,0,0
5.279,3.125,0,0,0,0,0
5.28,3.4375,0,0,0,0,0
5.281,2.5,0,0,0,0,0
5.282,2.8125,0,0,0,0,0
5.283,2.5,0,0,0,0,0
5.284,3.125,0,0,0,0,0
5.285,3.125,0,0,0,0,0
5.286,3.125,0,0,0,0,0
5.287,2.5,0,0,0,0,0
5.288,2.8125,0,0,0,0,0
5.289,2.5,0,0,0,0,0
5.29,2.5,0,0,0,0,0
5.291,2.5,0,0,0,0,0
5.292,2.5,0,0,0,0,0
5.293,2.5,0,0,0,0,0
5.294,2.5,0,0,0,0,0
5.295,2.5,0,0,0,0,0
5.296,2.1875,0,0,0,0,0
5.297,1.875,0,0,0,0,0
5.298,1.875,0,0,0,0,0
5.299,1.875,0,0,0,0,0
5.3,1.875,0,0,0,0,0
5.301,1.875,0,0,0,0,0
5.302,1.875,0,0,0,0,0
5.303,1.875,0,0,0,0,0
5.304,1.5625,0,0,0,0,0
5.305,1.25,0,0,0,0,0
5.306,1.25,0,0,0,0,0
5.307,1.25,0,0,0,0,0
5.308,1.25,0,0,0,0,0
5.309,1.25,0,0,0,0,0
5.31,0.9375,0,0,0,0,0
5.311,1.25,0,0,0,0,0
5.312,1.25,0,0,0,0,0
5.313,1.25,0,0,0,0,0
5.314,1.5625,0,0,0,0,0
5.315,1.875,0,0,0,0,0
5.316,1.875,0,0,0,0,0
5.317,2.5,0,0,0,0,0
5.318,1.875,0,0,0,0,0
5.319,1.25,0,0,0,0,0
5.32,0.625,0,0,0,0,0
5.321,0,0,0,0,0,0
5.322,0.3125,0,0,0,0,0
5.323,0.625,0,0,0,0,0
5.324,-0.3125,0,0,0,0,0
5.325,0,0,0,0,0,0
5.326,0.3125,0,0,0,0,0
5.327,0,0,0,0,0,0
5.328,0,0,0,0,0,0
5.329,0,0,0,0,0,0
5.33,0,0,0,0,0,0
5.331,0,0,0,0,0,0
5.332,0.3125,0,0,0,0,0
5.333,0.625,0,0,0,0,0
5.334,0,0,0,0,0,0
5.335,0,0,0,0,0,0
5.336,0,0,0,0,0,0
5.337,0,0,0,0,0,0
5.338,0.3125,0,0,0,0,0
5.339,0.625,0,0,0,0,0
5.34,0,0,0,0,0,0
5.341,0,0,0,0,0,0
5.342,-0.3125,0,0,0,0,0
5.343,-0.625,0,0,0,0,0
5.344,-0.3125,0,0,0,0,0
5.345,-0.625,0,0,0,0,0
5.346,-0.9375,0,0,0,0,0
5.347,-1.875,0,0,0,0,0
5.348,-1.875,0,0,0,0,0
5.349,-1.25,0,0,0,0,0
5.35,-2.1875,0,0,0,0,0
5.351,-2.5,0,0,0,0,0
5.352,-2.5,0,0,0,0,0
5.353,-2.5,0,0,0,0,0
5.354,-3.125,0,0,0,0,0
5.355,-3.125,0,0,0,0,0
5.356,-3.125,0,0,0,0,0
5.357,-3.125,0,0,0,0,0
5.358,-3.125,0,0,0,0,0
5.359,-3.125,0,0,0,0,0
5.36,-3.4375,0,0,0,0,0
5.361,-3.75,0,0,0,0,0
5.362,-3.4375,0,0,0,0,0
5.363,-3.75,0,0,0,0,0
5.364,-4.375,0,0,0,0,0
5.365,-4.375,0,0,0,0,0
5.366,-4.6875,0,0,0,0,0
5.367,-4.375,0,0,0,0,0
5.368,-4.375,0,0,0,0,0
5.369,-4.375,0,0,0,0,0
5.37,-4.0625,0,0,0,0,0
5.371,-3.75,0,0,0,0,0
5.372,-4.0625,0,0,0,0,0
5.373,-3.75,0,0,0,0,0
5.374,-4.0625,0,0,0,0,0
5.375,-4.375,0,0,0,0,0
5.376,-4.6875,0,0,0,0,0
5.377,-5,0,0,0,0,0
5.378,-4.6875,0,0,0,0,0
5.379,-4.375,0,0,0,0,0
5.38,-5,0,0,0,0,0
5.381,-5.625,0,0,0,0,0
5.382,-5,0,0,0,0,0
5.383,-5,0,0,0,0,0
5.384,-5.3125,0,0,0,0,0
5.385,-5.625,0,0,0,1,0
5.386,-5.625,0,0,0,0,0
5.387,-5.625,0,0,0,0,0
5.388,-5.3125,0,0,0,0,0
5.389,-5,0,0,0,0,0
5.39,-5,0,0,0,0,0
5.391,-5,0,0,0,0,0
5.392,-5,0,0,0,0,0
5.393,-4.375,0,0,0,0,0
5.394,-4.0625,0,0,0,0,0
5.395,-3.75,0,0,0,0,0
5.396,-4.0625,0,0,0,0,0
5.397,-4.375,0,0,0,0,0
5.398,-4.375,0,0,0,0,0
5.399,-3.75,0,0,0,0,0
5.4,-4.0625,0,0,0,0,0
5.401,-4.375,0,0,0,0,0
5.402,-4.6875,0,0,0,0,0
5.403,-4.375,0,0,0,0,0
5.404,-4.375,0,0,0,0,0
5.405,-4.375,0,0,0,0,0
5.406,-3.4375,0,0,0,0,0
5.407,-2.5,0,0,0,0,0
5.408,-2.8125,0,0,0,0,0
5.409,-3.125,0,0,0,0,0
5.41,-2.8125,0,0,0,0,0
5.411,-2.5,0,0,0,0,0
5.412,-1.5625,0,0,0,0,0
5.413,-1.25,0,0,0,0,0
5.414,-0.9375,0,0,0,0,0
5.415,-1.25,0,0,0,0,0
5.416,-1.25,0,0,0,0,0
5.417,-1.25,0,0,0,0,0
5.418,-0.9375,0,0,0,0,0
5.419,-1.25,0,0,0,0,0
5.42,-0.625,0,0,0,0,0
5.421,-0.625,0,0,0,0,0
5.422,0,0,0,0,0,0
5.423,0,0,0,0,0,0
5.424,0,0,0,0,0,0
5.425,0,0,0,0,0,0
5.426,0.3125,0,0,0,0,0
5.427,0,0,0,0,0,0
5.428,0.3125,0,0,0,0,0
5.429,1.25,0,0,0,0,0
5.43,0.9375,0,0,0,0,0
5.431,0.625,0,0,0,0,0
5.432,1.5625,0,0,0,0,0
5.433,1.875,0,0,0,0,0
5.434,2.5,0,0,0,0,0
5.435,2.5,0,0,0,0,0
5.436,2.5,0,0,0,0,0
5.437,2.5,0,0,0,0,0
5.438,2.8125,0,0,0,0,0
5.439,3.125,0,0,0,0,0
5.44,3.75,0,0,0,0,0
5.441,3.75,0,0,0,0,0
5.442,3.4375,0,0,0,0,0
5.443,3.125,0,0,0,0,0
5.444,3.125,0,0,0,0,0
5.445,3.75,0,0,0,0,0
5.446,4.0625,0,0,0,0,0
5.447,4.375,0,0,0,0,0
5.448,4.375,0,0,0,0,0
5.449,4.375,0,0,0,0,0
5.45,4.375,0,0,0,0,0
5.451,5,0,0,0,0,0
5.452,5,0,0,0,0,0
5.453,5,0,0,0,0,0
5.454,5.3125,0,0,0,0,0
5.455,5,0,0,0,0,0
5.456,4.6875,0,0,0,0,0
5.457,5,0,0,0,0,0
5.458,5,0,0,0,0,0
5.459,5,0,0,0,0,0
5.46,5,0,0,0,0,0
5.461,5,0,0,0,0,0
5.462,4.6875,0,0,0,0,0
5.463,4.375,0,0,0,0,0
5.464,4.375,0,0,0,0,0
5.465,4.375,0,0,0,0,0
5.466,4.6875,0,0,0,0,0
5.467,4.375,0,0,0,0,0
5.468,4.0625,0,0,0,0,0
5.469,3.75,0,0,0,0,0
5.47,3.4375,0,0,0,0,0
5.471,3.125,0,0,0,0,0
5.472,4.375,0,0,0,0,0
5.473,4.375,0,0,0,0,0
5.474,4.375,0,0,0,0,0
5.475,4.375,0,0,0,0,0
5.476,4.0625,0,0,0,0,0
5.477,3.75,0,0,0,0,0
5.478,4.0625,0,0,0,0,0
5.479,4.375,0,0,0,0,0
5.48,4.375,0,0,0,0,0
5.481,5,0,0,0,0,0
5.482,4.375,0,0,0,0,0
5.483,4.375,0,0,0,0,0
5.484,4.0625,0,0,0,0,0
5.485,3.75,0,0,0,0,0
5.486,3.125,0,0,0,0,1
5.487,3.125,0,0,0,0,0
5.488,3.4375,0,0,0,0,0
5.489,3.125,0,0,0,0,0
5.49,2.8125,0,0,0,0,0
5.491,2.5,0,0,0,0,0
5.492,2.5,0,0,0,0,0
5.493,2.5,0,0,0,0,0
5.494,2.5,0,0,0,0,0
5.495,2.5,0,0,0,0,0
5.496,1.25,0,0,0,0,0
5.497,0.625,0,0,0,0,0
5.498,0.3125,0,0,0,0,0
5.499,0,0,0,0,0,0
5.5,0.625,0,0,0,0,0
5.501,1.875,0,0,0,0,0
5.502,2.1875,0,0,0,0,0
5.503,2.5,0,0,0,0,0
5.504,1.875,0,0,0,0,0
5.505,1.875,0,0,0,0,0
5.506,1.875,0,0,0,0,0
5.507,1.875,0,0,0,0,0
5.508,1.5625,0,0,0,0,0
5.509,1.25,0,0,0,0,0
5.51,1.25,0,0,0,0,0
5.511,1.25,0,0,0,0,0
5.512,0.9375,0,0,0,0,0
5.513,0.625,0,0,0,0,0
5.514,1.5625,0,0,0,0,0
5.515,1.25,0,0,0,0,0
5.516,2.1875,0,0,0,0,0
5.517,1.875,0,0,0,0,0
5.518,1.875,0,0,0,0,0
5.519,1.875,0,0,0,0,0
5.52,1.875,0,0,0,0,0
5.521,1.875,0,0,0,0,0
5.522,1.875,0,0,0,0,0
5.523,1.875,0,0,0,0,0
