0,1.1875,0,0,0,0,0
0.001,0.75,0,0,0,0,0
0.002,0.6875,0,0,0,0,0
0.003,0.75,0,0,0,0,0
0.004,2.5625,0,0,0,0,0
0.005,5,0,0,0,0,0
0.006,4.625,0,0,0,0,0
0.007,4.6875,0,0,0,0,0
0.008,4.8125,0,0,0,0,0
0.009,4.6875,0,0,0,0,0
0.01,4.5625,0,0,0,0,0
0.011,4.0625,0,0,0,0,0
0.012,3.5625,0,0,0,0,0
0.013,3.5625,0,0,0,0,0
0.014,3.25,0,0,0,0,0
0.015,2.5,0,0,0,0,0
0.016,2.3125,0,0,0,0,0
0.017,2,0,0,0,0,0
0.018,1.8125,0,0,0,0,0
0.019,1.875,0,0,0,0,0
0.02,2.625,0,0,0,0,0
0.021,3.25,0,0,0,0,0
0.022,3.8125,0,0,0,0,0
0.023,4.6875,0,0,0,0,0
0.024,4.4375,0,0,0,0,0
0.025,4.1875,0,0,0,0,0
0.026,3.25,0,0,0,0,0
0.027,3.4375,0,0,0,0,0
0.028,3.625,0,0,0,0,0
0.029,3.75,0,0,0,0,0
0.03,3.0625,0,0,0,0,0
0.031,2.9375,0,0,0,0,0
0.032,3.125,0,0,0,0,0
0.033,2.9375,0,0,0,0,0
0.034,3.0625,0,0,0,0,0
0.035,3.25,0,0,0,0,0
0.036,3.625,0,0,0,0,0
0.037,3.25,0,0,0,0,0
0.038,3.0625,0,0,0,0,0
0.039,2.625,0,0,0,0,0
0.04,3.5,0,0,0,0,0
0.041,3.875,0,0,0,0,0
0.042,4.375,0,0,0,0,0
0.043,4.375,0,0,0,0,0
0.044,4.875,0,0,0,0,0
0.045,5.125,0,0,0,0,0
0.046,4.1875,0,0,0,0,0
0.047,3.875,0,0,0,0,0
0.048,2.9375,0,0,0,0,0
0.049,1.875,0,0,0,0,0
0.05,2.5,0,0,0,0,0
0.051,2.5,0,0,0,0,0
0.052,2.0625,0,0,0,0,0
0.053,2,0,0,0,0,0
0.054,1.6875,0,0,0,0,0
0.055,1.375,0,0,0,0,0
0.056,2.5,0,0,0,0,0
0.057,2.625,0,0,0,0,0
0.058,2.8125,0,0,0,0,0
0.059,2.8125,0,0,0,0,0
0.06,2.6875,0,0,0,0,0
0.061,2.9375,0,0,0,0,0
0.062,2.8125,0,0,0,0,0
0.063,2.8125,0,0,0,0,0
0.064,3.3125,0,0,0,0,0
0.065,4.0625,0,0,0,0,0
0.066,4.3125,0,0,0,0,0
0.067,5,0,0,0,0,0
0.068,4.3125,0,0,0,0,0
0.069,4.1875,0,0,0,0,0
0.07,3.8125,0,0,0,0,0
0.071,3.125,0,0,0,0,0
0.072,2.5,0,0,0,0,0
0.073,2.625,0,0,0,0,0
0.074,2.5,0,0,0,0,0
0.075,2.8125,0,0,0,0,0
0.076,2.4375,0,0,0,0,0
0.077,2.1875,0,0,0,0,0
0.078,1.25,0,0,0,0,0
0.079,0.75,0,0,0,0,0
0.08,0.625,0,0,0,0,0
0.081,-0.625,0,0,0,0,0
0.082,0.6875,0,0,0,0,0
0.083,2.625,0,0,0,0,0
0.084,3.5625,0,0,0,0,0
0.085,5.125,0,0,0,0,0
0.086,4.6875,0,0,0,0,0
0.087,4.1875,0,0,0,0,0
0.088,3,0,0,0,0,0
0.089,2.1875,0,0,0,0,0
0.09,2.0625,0,0,0,0,0
0.091,1.6875,0,0,0,0,0
0.092,2,0,0,0,0,0
0.093,2.1875,0,0,0,0,0
0.094,2.625,0,0,0,0,0
0.095,2.8125,0,0,0,0,0
0.096,3.6875,0,0,0,0,0
0.097,4.6875,0,0,0,0,0
0.098,4.0625,0,0,0,0,0
0.099,4.0625,0,0,0,0,0
0.1,4.125,0,0,0,0,0
0.101,3.875,0,0,0,0,0
0.102,4.25,0,0,0,0,0
0.103,4.1875,0,0,0,0,0
0.104,3.9375,0,0,0,0,0
0.105,3.4375,0,0,0,0,0
0.106,2.0625,0,0,0,0,0
0.107,1.375,0,0,0,0,0
0.108,2.9375,0,0,0,0,0
0.109,3.75,0,0,0,0,0
0.11,3.9375,0,0,0,0,0
0.111,5,0,0,0,0,0
0.112,5.0625,0,0,0,0,0
0.113,5,0,0,0,0,0
0.114,4.0625,0,0,0,0,0
0.115,4.1875,0,0,0,0,0
0.116,4,0,0,0,0,0
0.117,3.75,0,0,0,0,0
0.118,3.75,0,0,0,0,0
0.119,3.875,0,0,0,0,0
0.12,3.25,0,0,0,0,0
0.121,3.5625,0,0,0,0,0
0.122,4,0,0,0,0,0
0.123,4.5,0,0,0,0,0
0.124,3.9375,0,0,0,0,0
0.125,4.375,0,0,0,0,0
0.126,3.4375,0,0,0,0,0
0.127,4.0625,0,0,0,0,0
0.128,3.8125,0,0,0,0,0
0.129,3.5625,0,0,0,0,0
0.13,3.125,0,0,0,0,0
0.131,2.5,0,0,0,0,0
0.132,2.3125,0,0,0,0,0
0.133,2.3125,0,0,0,0,0
0.134,2.375,0,0,0,0,0
0.135,2.5,0,0,0,0,0
0.136,2.125,0,0,0,0,0
0.137,2.1875,0,0,0,0,0
0.138,2.1875,0,0,0,0,0
0.139,2.1875,0,0,0,0,0
0.14,3.0625,0,0,0,0,0
0.141,2.625,0,0,0,0,0
0.142,2.875,0,0,0,0,0
0.143,2.625,0,0,0,0,0
0.144,2.875,0,0,0,0,0
0.145,3.4375,0,0,0,0,0
0.146,3.5625,0,0,0,0,0
0.147,4.1875,0,0,0,0,0
0.148,4.6875,0,0,0,0,0
0.149,4.0625,0,0,0,0,0
0.15,3.625,0,0,0,0,0
0.151,3.125,0,0,0,0,0
0.152,3.9375,0,0,0,0,0
0.153,3.25,0,0,0,0,0
0.154,2.625,0,0,0,0,0
0.155,2.5,0,0,0,0,0
0.156,2.3125,0,0,0,0,0
0.157,3.5625,0,0,0,0,0
0.158,3.3125,0,0,0,0,0
0.159,3.125,0,0,0,0,0
0.16,2.75,0,0,0,0,0
0.161,3.25,0,0,0,0,0
0.162,2.875,0,0,0,0,0
0.163,2.9375,0,0,0,0,0
0.164,2.9375,0,0,0,0,0
0.165,2.9375,0,0,0,0,0
0.166,2.875,0,0,0,0,0
0.167,2.3125,0,0,0,0,0
0.168,2.4375,0,0,0,0,0
0.169,2.9375,0,0,0,0,0
0.17,3.0625,0,0,0,0,0
0.171,3.4375,0,0,0,0,0
0.172,4.1875,0,0,0,0,0
0.173,5,0,0,0,0,0
0.174,4.375,0,0,0,0,0
0.175,4.1875,0,0,0,0,0
0.176,4.8125,0,0,0,0,0
0.177,4.5,0,0,0,0,0
0.178,4.375,0,0,0,0,0
0.179,4.1875,0,0,0,0,0
0.18,4.125,0,0,0,0,0
0.181,3.4375,0,0,0,0,0
0.182,3.375,0,0,0,0,0
0.183,3.5625,0,0,0,0,0
0.184,3.3125,0,0,0,0,0
0.185,2.8125,0,0,0,0,0
0.186,4.4375,0,0,0,0,0
0.187,4.5,0,0,0,0,0
0.188,5.0625,0,0,0,0,0
0.189,5.9375,0,0,0,0,0
0.19,5.875,0,0,0,0,0
0.191,5.75,0,0,0,0,0
0.192,6,0,0,0,0,0
0.193,6.25,0,0,0,0,0
0.194,6,0,0,0,0,0
0.195,5.625,0,0,0,0,0
0.196,5.8125,0,0,0,0,0
0.197,5.625,0,0,0,0,0
0.198,5.5625,0,0,0,0,0
0.199,5,0,0,0,0,0
0.2,4.875,0,0,0,0,0
0.201,4.8125,0,0,0,0,0
0.202,4.625,0,0,0,0,0
0.203,4.8125,0,0,0,0,0
0.204,5.6875,0,0,0,0,0
0.205,6.875,0,0,0,0,0
0.206,6.625,0,0,0,0,0
0.207,7.1875,0,0,0,0,0
0.208,8.75,0,0,0,0,0
0.209,10,0,0,0,0,0
0.21,9.1875,0,0,0,0,0
0.211,9.5,0,0,0,0,0
0.212,8.8125,0,0,0,0,0
0.213,8.25,0,0,0,0,0
0.214,8.0625,0,0,0,0,0
0.215,7.5,0,0,0,0,0
0.216,7.5625,0,0,0,0,0
0.217,7,0,0,0,0,0
0.218,6.25,0,0,0,0,0
0.219,6.0625,0,0,0,0,0
0.22,7.5625,0,0,0,0,0
0.221,9.0625,0,0,0,0,0
0.222,8.4375,0,0,0,0,0
0.223,8.4375,0,0,0,0,0
0.224,7.8125,0,0,0,0,0
0.225,7.625,0,0,0,0,0
0.226,6.6875,0,0,0,0,0
0.227,5.75,0,0,0,0,0
0.228,5.8125,0,0,0,0,0
0.229,6.5625,0,0,0,0,0
0.23,5.125,0,0,0,0,0
0.231,4.375,0,0,0,0,0
0.232,5,0,0,0,0,0
0.233,5.3125,0,0,0,0,0
0.234,4.25,0,0,0,0,0
0.235,2.8125,0,0,0,0,0
0.236,2.875,0,0,0,0,0
0.237,2.8125,0,0,0,0,0
0.238,3,0,0,0,0,0
0.239,3.125,0,0,0,0,0
0.24,3.125,0,0,0,0,0
0.241,2.5,0,0,0,0,0
0.242,2.8125,0,0,0,0,0
0.243,3.25,0,0,0,0,0
0.244,2.125,0,0,0,0,0
0.245,2,0,0,0,0,0
0.246,1.625,0,0,0,0,0
0.247,0.625,0,0,0,0,0
0.248,1.125,0,0,0,0,0
0.249,2.1875,0,0,0,0,0
0.25,2.625,0,0,0,0,0
0.251,3.125,0,0,0,0,0
0.252,2.8125,0,0,0,0,0
0.253,2.9375,0,0,0,0,0
0.254,2.8125,0,0,0,0,0
0.255,2.1875,0,0,0,0,0
0.256,2.4375,0,0,0,0,0
0.257,2.8125,0,0,0,0,0
0.258,2.25,0,0,0,0,0
0.259,1.5625,0,0,0,0,0
0.26,1.875,0,0,0,0,0
0.261,2.3125,0,0,0,0,0
0.262,2.4375,0,0,0,0,0
0.263,2.5,0,0,0,0,0
0.264,2.1875,0,0,0,0,0
0.265,2.8125,0,0,0,0,0
0.266,2.0625,0,0,0,0,0
0.267,2,0,0,0,0,0
0.268,1,0,0,0,0,0
0.269,0.3125,0,0,0,0,0
0.27,0.9375,0,0,0,0,0
0.271,1.5625,0,0,0,0,0
0.272,2.1875,0,0,0,0,0
0.273,3.125,0,0,0,0,0
0.274,2.375,0,0,0,0,0
0.275,2.1875,0,0,0,0,0
0.276,1.9375,0,0,0,0,0
0.277,1.6875,0,0,0,0,0
0.278,2.0625,0,0,0,0,0
0.279,2,0,0,0,0,0
0.28,2.125,0,0,0,0,0
0.281,1.875,0,0,0,0,0
0.282,1.375,0,0,0,0,0
0.283,1.0625,0,0,0,0,0
0.284,2,0,0,0,0,0
0.285,1.6875,0,0,0,0,0
0.286,1.875,0,0,0,0,0
0.287,1.0625,0,0,0,0,0
0.288,1.1875,0,0,0,0,0
0.289,1.25,0,0,0,0,0
0.29,1.625,0,0,0,0,0
0.291,1.5625,0,0,0,0,0
0.292,1.25,0,0,0,0,0
0.293,1.0625,0,0,0,0,0
0.294,1.4375,0,0,0,0,0
0.295,1.25,0,0,0,0,0
0.296,2,0,0,0,0,0
0.297,3.125,0,0,0,0,0
0.298,2.4375,0,0,0,0,0
0.299,2.5,0,0,0,0,0
0.3,2.4375,0,0,0,0,0
0.301,2.3125,0,0,0,0,0
0.302,2.9375,0,0,0,0,0
0.303,2.5,0,0,0,0,0
0.304,2.5,0,0,0,0,0
0.305,2.5,0,0,0,0,0
0.306,2.25,0,0,0,0,0
0.307,2.625,0,0,0,0,0
0.308,2.5,0,0,0,0,0
0.309,3.125,0,0,0,0,0
0.31,2.5,0,0,0,0,0
0.311,1.5625,0,0,0,0,0
0.312,1.5625,0,0,0,0,0
0.313,1.25,0,0,0,0,0
0.314,1.6875,0,0,0,0,0
0.315,1.375,0,0,0,0,0
0.316,2.875,0,0,0,0,0
0.317,2.8125,1,0,0,0,0
0.318,2.75,0,0,0,0,0
0.319,2.1875,0,0,0,0,0
0.32,1.375,0,0,0,0,0
0.321,1.6875,0,0,0,0,0
0.322,1.1875,0,0,0,0,0
0.323,1.875,0,0,0,0,0
0.324,1.8125,0,0,0,0,0
0.325,1.5625,0,0,0,0,0
0.326,0.6875,0,0,0,0,0
0.327,0.3125,0,0,0,0,0
0.328,0.3125,0,0,0,0,0
0.329,0.75,0,0,0,0,0
0.33,1.6875,0,0,0,0,0
0.331,2.5,0,0,0,0,0
0.332,2.5,0,0,0,0,0
0.333,2.5,0,0,0,0,0
0.334,2.25,0,0,0,0,0
0.335,1.5625,0,0,0,0,0
0.336,3.125,0,0,0,0,0
0.337,3.875,0,0,0,0,0
0.338,5.25,0,0,0,0,0
0.339,6.25,0,0,0,0,0
0.34,7.1875,0,0,0,0,0
0.341,8.25,0,0,0,0,0
0.342,8.125,0,0,0,0,0
0.343,8.75,0,0,0,0,0
0.344,9.75,0,0,0,0,0
0.345,10.938,0,0,0,0,0
0.346,11.188,0,0,0,0,0
0.347,11.688,0,0,0,0,0
0.348,13.063,0,0,0,0,0
0.349,15,0,0,0,0,0
0.35,16.188,0,0,0,0,0
0.351,17.625,0,0,0,0,0
0.352,19.375,0,0,0,0,0
0.353,20.75,0,0,0,0,0
0.354,22.938,0,0,0,0,0
0.355,24.688,0,0,0,0,0
0.356,27,0,0,0,0,0
0.357,29.688,0,0,0,0,0
0.358,32.25,0,0,0,0,0
0.359,35,0,0,0,0,0
0.36,37,0,0,0,0,0
0.361,37.938,0,0,0,0,0
0.362,39.125,0,0,0,0,0
0.363,40.125,0,0,0,0,0
0.364,41.5,0,1,0,0,0
0.365,41.563,0,0,0,0,0
0.366,40.25,0,0,0,0,0
0.367,38.75,0,0,0,0,0
0.368,36.688,0,0,0,0,0
0.369,34.188,0,0,0,0,0
0.37,30.688,0,0,0,0,0
0.371,27.938,0,0,0,0,0
0.372,25.5,0,0,0,0,0
0.373,22.313,0,0,0,0,0
0.374,16.625,0,0,0,0,0
0.375,11.563,0,0,0,0,0
0.376,7.0625,0,0,0,0,0
0.377,3.25,0,0,0,0,0
0.378,0,0,0,0,0,0
0.379,-3.9375,0,0,0,0,0
0.38,-7.4375,0,0,0,0,0
0.381,-10.313,0,0,0,0,0
0.382,-14.813,0,0,0,0,0
0.383,-18.125,0,0,0,0,0
0.384,-20.75,0,0,0,0,0
0.385,-23.125,0,0,0,0,0
0.386,-25.875,0,0,0,0,0
0.387,-28.625,0,0,0,0,0
0.388,-31.25,0,0,0,0,0
0.389,-32.375,0,0,0,0,0
0.39,-33.438,0,0,0,0,0
0.391,-35.188,0,0,0,0,0
0.392,-35.875,0,0,0,0,0
0.393,-36.438,0,0,0,0,0
0.394,-35.625,0,0,0,0,0
0.395,-34.375,0,0,0,0,0
0.396,-33.625,0,0,0,0,0
0.397,-31.25,0,0,0,0,0
0.398,-29.375,0,0,0,0,0
0.399,-27.813,0,0,0,0,0
0.4,-26.25,0,0,0,0,0
0.401,-24.688,0,0,0,0,0
0.402,-23.125,0,0,0,0,0
0.403,-22.063,0,0,0,0,0
0.404,-21.125,0,0,0,0,0
0.405,-20.188,0,0,0,0,0
0.406,-18.75,0,0,0,0,0
0.407,-17.5,0,0,0,0,0
0.408,-17.063,0,0,0,0,0
0.409,-16.563,0,0,0,0,0
0.41,-16.688,0,0,0,0,0
0.411,-16.563,0,0,0,0,0
0.412,-15.813,0,0,0,0,0
0.413,-15.625,0,0,0,0,0
0.414,-15.5,0,0,0,0,0
0.415,-14.688,0,0,0,0,0
0.416,-13.25,0,0,0,0,0
0.417,-11.875,0,0,0,0,0
0.418,-12.188,0,0,0,0,0
0.419,-12.813,0,0,0,0,0
0.42,-14.125,0,0,0,0,0
0.421,-14.875,0,0,0,0,0
0.422,-13.375,0,0,0,0,0
0.423,-11.438,0,0,0,0,0
0.424,-11.25,0,0,0,0,0
0.425,-10.813,0,0,0,0,0
0.426,-10.875,0,0,0,0,0
0.427,-11.125,0,0,0,0,0
0.428,-11.75,0,0,0,0,0
0.429,-11.563,0,0,0,0,0
0.43,-11.813,0,0,0,0,0
0.431,-12.813,0,0,0,0,0
0.432,-11.688,0,0,0,0,0
0.433,-11.438,0,0,0,0,0
0.434,-11.375,0,0,0,0,0
0.435,-10.5,0,0,0,0,0
0.436,-10.875,0,0,0,0,0
0.437,-10.5,0,0,0,0,0
0.438,-10.625,0,0,0,0,0
0.439,-10.813,0,0,0,0,0
0.44,-10.125,0,0,0,0,0
0.441,-9.5625,0,0,0,0,0
0.442,-8.8125,0,0,0,0,0
0.443,-8.625,0,0,0,0,0
0.444,-8.6875,0,0,0,0,0
0.445,-9.25,0,0,0,0,0
0.446,-10.625,0,0,0,0,0
0.447,-11.25,0,0,0,0,0
0.448,-11.563,0,0,0,0,0
0.449,-12.063,0,0,0,0,0
0.45,-11.875,0,0,0,0,0
0.451,-11.75,0,0,0,0,0
0.452,-10.875,0,0,0,0,0
0.453,-9.875,0,0,0,0,0
0.454,-9.9375,0,0,0,0,0
0.455,-10.188,0,0,0,0,0
0.456,-10.438,0,0,0,0,0
0.457,-10.5,0,0,0,0,0
0.458,-11.313,0,0,0,0,0
0.459,-11.25,0,0,0,0,0
0.46,-11.25,0,0,0,0,0
0.461,-10.938,0,0,0,0,0
0.462,-9.8125,0,0,0,0,0
0.463,-8.75,0,0,0,0,0
0.464,-8,0,0,0,0,0
0.465,-7.6875,0,0,0,0,0
0.466,-7.3125,0,0,0,0,0
0.467,-7.0625,0,0,0,0,0
0.468,-6.1875,0,0,0,0,0
0.469,-5.625,0,0,0,0,0
0.47,-5.3125,0,0,0,0,0
0.471,-5.1875,0,0,0,0,0
0.472,-4.5,0,0,0,0,0
0.473,-4.25,0,0,0,0,0
0.474,-3.625,0,0,0,0,0
0.475,-2.5,0,0,0,0,0
0.476,-2,0,0,0,0,0
0.477,-2.0625,0,0,0,0,0
0.478,-2.125,0,0,0,0,0
0.479,-2.0625,0,0,0,0,0
0.48,-1.5625,0,0,0,0,0
0.481,-1.25,0,0,0,0,0
0.482,-0.8125,0,0,0,0,0
0.483,-0.3125,0,0,0,0,0
0.484,0.125,0,0,0,0,0
0.485,0,0,0,0,0,0
0.486,0.25,0,0,0,0,0
0.487,0.3125,0,0,0,0,0
0.488,0.5,0,0,0,0,0
0.489,0.3125,0,0,0,0,0
0.49,0.4375,0,0,0,0,0
0.491,0.9375,0,0,0,0,0
0.492,1,0,0,0,0,0
0.493,1.875,0,0,0,0,0
0.494,2.4375,0,0,0,0,0
0.495,3.4375,0,0,0,0,0
0.496,3,0,0,1,0,0
0.497,3.125,0,0,0,0,0
0.498,3.4375,0,0,0,0,0
0.499,3.75,0,0,0,0,0
0.5,4.0625,0,0,0,0,0
0.501,3.875,0,0,0,0,0
0.502,2.6875,0,0,0,0,0
0.503,2.5,0,0,0,0,0
0.504,2.75,0,0,0,0,0
0.505,2,0,0,0,0,0
0.506,1.6875,0,0,0,0,0
0.507,1.375,0,0,0,0,0
0.508,2.1875,0,0,0,0,0
0.509,2.625,0,0,0,0,0
0.51,2.375,0,0,0,0,0
0.511,2.8125,0,0,0,0,0
0.512,3.875,0,0,0,0,0
0.513,4.375,0,0,0,0,0
0.514,3.9375,0,0,0,0,0
0.515,3.4375,0,0,0,0,0
0.516,3.125,0,0,0,0,0
0.517,3.75,0,0,0,0,0
0.518,3.3125,0,0,0,0,0
0.519,3.5625,0,0,0,0,0
0.52,4.0625,0,0,0,0,0
0.521,4.375,0,0,0,0,0
0.522,3.1875,0,0,0,0,0
0.523,2.625,0,0,0,0,0
0.524,2.625,0,0,0,0,0
0.525,2.9375,0,0,0,0,0
0.526,1.9375,0,0,0,0,0
0.527,1.375,0,0,0,0,0
0.528,3.1875,0,0,0,0,0
0.529,5.125,0,0,0,0,0
0.53,5.0625,0,0,0,0,0
0.531,4.8125,0,0,0,0,0
0.532,5.4375,0,0,0,0,0
0.533,5.125,0,0,0,0,0
0.534,4.6875,0,0,0,0,0
0.535,4.6875,0,0,0,0,0
0.536,4.9375,0,0,0,0,0
0.537,5,0,0,0,0,0
0.538,4.25,0,0,0,0,0
0.539,3.5625,0,0,0,0,0
0.54,3.625,0,0,0,0,0
0.541,3.4375,0,0,0,0,0
0.542,3.9375,0,0,0,0,0
0.543,3.875,0,0,0,0,0
0.544,3.25,0,0,0,0,0
0.545,3.875,0,0,0,0,0
0.546,3.75,0,0,0,0,0
0.547,3.5625,0,0,0,0,0
0.548,2.875,0,0,0,0,0
0.549,2.1875,0,0,0,0,0
0.55,3.125,0,0,0,0,0
0.551,3.25,0,0,0,0,0
0.552,3.5,0,0,0,0,0
0.553,3.125,0,0,0,0,0
0.554,3.3125,0,0,0,0,0
0.555,3.25,0,0,0,0,0
0.556,3.8125,0,0,0,0,0
0.557,5.125,0,0,0,0,0
0.558,5.875,0,0,0,0,0
0.559,6.5625,0,0,0,0,0
0.56,6.125,0,0,0,0,0
0.561,5.9375,0,0,0,0,0
0.562,5.5,0,0,0,0,0
0.563,4.6875,0,0,0,0,0
0.564,4.875,0,0,0,0,0
0.565,5,0,0,0,0,0
0.566,5.875,0,0,0,0,0
0.567,6.25,0,0,0,0,0
0.568,6.1875,0,0,0,0,0
0.569,5.9375,0,0,0,0,0
0.57,5.25,0,0,0,0,0
0.571,4.6875,0,0,0,0,0
0.572,4.4375,0,0,0,0,0
0.573,4.1875,0,0,0,0,0
0.574,3.8125,0,0,0,0,0
0.575,3.875,0,0,0,0,0
0.576,3.4375,0,0,0,0,0
0.577,3.5625,0,0,0,0,0
0.578,4.0625,0,0,0,0,0
0.579,4.1875,0,0,0,0,0
0.58,3.875,0,0,0,0,0
0.581,4.0625,0,0,0,0,0
0.582,3.0625,0,0,0,0,0
0.583,3.125,0,0,0,0,0
0.584,2.4375,0,0,0,0,0
0.585,2.1875,0,0,0,0,0
0.586,2.75,0,0,0,0,0
0.587,3.125,0,0,0,0,0
0.588,3.375,0,0,0,0,0
0.589,4.8125,0,0,0,0,0
0.59,4.75,0,0,0,0,0
0.591,4.8125,0,0,0,0,0
0.592,4.3125,0,0,0,0,0
0.593,3.875,0,0,0,0,0
0.594,4.3125,0,0,0,0,0
0.595,4.5,0,0,0,0,0
0.596,4.9375,0,0,0,0,0
0.597,5.4375,0,0,0,0,0
0.598,5.3125,0,0,0,0,0
0.599,5.125,0,0,0,0,0
0.6,5.875,0,0,0,0,0
0.601,6.375,0,0,0,0,0
0.602,6.875,0,0,0,0,0
0.603,7.3125,0,0,0,0,0
0.604,7.9375,0,0,0,0,0
0.605,8.125,0,0,0,0,0
0.606,8.375,0,0,0,0,0
0.607,8.25,0,0,0,0,0
0.608,8.4375,0,0,0,0,0
0.609,8.4375,0,0,0,0,0
0.61,8.75,0,0,0,0,0
0.611,8.5625,0,0,0,0,0
0.612,7.25,0,0,0,0,0
0.613,6.25,0,0,0,0,0
0.614,5.9375,0,0,0,0,0
0.615,5.9375,0,0,0,0,0
0.616,6.8125,0,0,0,0,0
0.617,7.5,0,0,0,0,0
0.618,6.9375,0,0,0,0,0
0.619,5.4375,0,0,0,0,0
0.62,6.125,0,0,0,0,0
0.621,5.75,0,0,0,0,0
0.622,6.25,0,0,0,0,0
0.623,6.25,0,0,0,0,0
0.624,6.5,0,0,0,0,0
0.625,6.375,0,0,0,0,0
0.626,7.4375,0,0,0,0,0
0.627,7.5,0,0,0,0,0
0.628,8.5625,0,0,0,0,0
0.629,9.6875,0,0,0,0,0
0.63,8.625,0,0,0,0,0
0.631,7.8125,0,0,0,0,0
0.632,7.5625,0,0,0,0,0
0.633,7.5,0,0,0,0,0
0.634,7.8125,0,0,0,0,0
0.635,7.8125,0,0,0,0,0
0.636,7.875,0,0,0,0,0
0.637,7.9375,0,0,0,0,0
0.638,7.8125,0,0,0,0,0
0.639,7.9375,0,0,0,0,0
0.64,8.4375,0,0,0,0,0
0.641,8.5625,0,0,0,0,0
0.642,9.1875,0,0,0,0,0
0.643,9.6875,0,0,0,0,0
0.644,10.25,0,0,0,0,0
0.645,10.625,0,0,0,0,0
0.646,10.063,0,0,0,0,0
0.647,9.1875,0,0,0,0,0
0.648,8.75,0,0,0,0,0
0.649,8.4375,0,0,0,0,0
0.65,9.3125,0,0,0,0,0
0.651,9.1875,0,0,0,0,0
0.652,8.8125,0,0,0,0,0
0.653,9.1875,0,0,0,0,0
0.654,8.4375,0,0,0,0,0
0.655,8.125,0,0,0,0,0
0.656,7.6875,0,0,0,0,0
0.657,7.5,0,0,0,0,0
0.658,8.875,0,0,0,0,0
0.659,10.125,0,0,0,0,0
0.66,9.8125,0,0,0,1,0
0.661,9.8125,0,0,0,0,0
0.662,9.9375,0,0,0,0,0
0.663,10,0,0,0,0,0
0.664,10.438,0,0,0,0,0
0.665,11.063,0,0,0,0,0
0.666,10.75,0,0,0,0,0
0.667,10.625,0,0,0,0,0
0.668,10,0,0,0,0,0
0.669,9.0625,0,0,0,0,0
0.67,8.125,0,0,0,0,0
0.671,8.125,0,0,0,0,0
0.672,8.6875,0,0,0,0,0
0.673,8.4375,0,0,0,0,0
0.674,8,0,0,0,0,0
0.675,8.875,0,0,0,0,0
0.676,8.6875,0,0,0,0,0
0.677,9.375,0,0,0,0,0
0.678,8.625,0,0,0,0,0
0.679,7.9375,0,0,0,0,0
0.68,8.5625,0,0,0,0,0
0.681,9.6875,0,0,0,0,0
0.682,9.9375,0,0,0,0,0
0.683,10,0,0,0,0,0
0.684,9.25,0,0,0,0,0
0.685,7.9375,0,0,0,0,0
0.686,7.8125,0,0,0,0,0
0.687,7.5,0,0,0,0,0
0.688,8.125,0,0,0,0,0
0.689,9.375,0,0,0,0,0
0.69,10.25,0,0,0,0,0
0.691,10.938,0,0,0,0,0
0.692,10.063,0,0,0,0,0
0.693,9.5,0,0,0,0,0
0.694,9.3125,0,0,0,0,0
0.695,8.4375,0,0,0,0,0
0.696,8.5,0,0,0,0,0
0.697,8.25,0,0,0,0,0
0.698,8.4375,0,0,0,0,0
0.699,8.125,0,0,0,0,0
0.7,8.4375,0,0,0,0,0
0.701,7.8125,0,0,0,0,0
0.702,7.6875,0,0,0,0,0
0.703,6.875,0,0,0,0,0
0.704,6.0625,0,0,0,0,0
0.705,5.4375,0,0,0,0,0
0.706,5.8125,0,0,0,0,0
0.707,5.9375,0,0,0,0,0
0.708,7.125,0,0,0,0,0
0.709,7.625,0,0,0,0,0
0.71,7.1875,0,0,0,0,0
0.711,6.5625,0,0,0,0,0
0.712,6,0,0,0,0,0
0.713,5.3125,0,0,0,0,0
0.714,6.0625,0,0,0,0,0
0.715,6.0625,0,0,0,0,0
0.716,6.125,0,0,0,0,0
0.717,5.9375,0,0,0,0,0
0.718,6.6875,0,0,0,0,0
0.719,6.5625,0,0,0,0,0
0.72,5.8125,0,0,0,0,0
0.721,5.4375,0,0,0,0,0
0.722,5,0,0,0,0,0
0.723,4.1875,0,0,0,0,0
0.724,4.4375,0,0,0,0,0
0.725,4.375,0,0,0,0,0
0.726,4,0,0,0,0,0
0.727,4.375,0,0,0,0,0
0.728,4.8125,0,0,0,0,0
0.729,5.125,0,0,0,0,0
0.73,4.25,0,0,0,0,0
0.731,4.5,0,0,0,0,0
0.732,3.5,0,0,0,0,0
0.733,2.625,0,0,0,0,0
0.734,2.875,0,0,0,0,0
0.735,2.5,0,0,0,0,0
0.736,3.1875,0,0,0,0,0
0.737,3.125,0,0,0,0,0
0.738,3.0625,0,0,0,0,0
0.739,2.8125,0,0,0,0,0
0.74,2.9375,0,0,0,0,0
0.741,2.8125,0,0,0,0,0
0.742,2.875,0,0,0,0,0
0.743,3.125,0,0,0,0,0
0.744,2.75,0,0,0,0,0
0.745,2.8125,0,0,0,0,0
0.746,2.3125,0,0,0,0,0
0.747,1.875,0,0,0,0,0
0.748,2.3125,0,0,0,0,0
0.749,2.3125,0,0,0,0,0
0.75,3.0625,0,0,0,0,0
0.751,2.9375,0,0,0,0,0
0.752,2.5,0,0,0,0,0
0.753,2.5,0,0,0,0,0
0.754,2.375,0,0,0,0,0
0.755,2.5,0,0,0,0,0
0.756,2.6875,0,0,0,0,0
0.757,2.8125,0,0,0,0,0
0.758,2.9375,0,0,0,0,0
0.759,2.9375,0,0,0,0,0
0.76,3.25,0,0,0,0,0
0.761,2.9375,0,0,0,0,0
0.762,2.1875,0,0,0,0,0
0.763,1.875,0,0,0,0,0
0.764,1.75,0,0,0,0,0
0.765,2.1875,0,0,0,0,0
0.766,1.125,0,0,0,0,1
0.767,0.3125,0,0,0,0,0
0.768,0.75,0,0,0,0,0
0.769,0.9375,0,0,0,0,0
0.77,0.8125,0,0,0,0,0
0.771,0.9375,0,0,0,0,0
0.772,1,0,0,0,0,0
0.773,1.25,0,0,0,0,0
0.774,0.9375,0,0,0,0,0
0.775,0.3125,0,0,0,0,0
0.776,0,0,0,0,0,0
0.777,0,0,0,0,0,0
0.778,-0.5,0,0,0,0,0
0.779,-0.625,0,0,0,0,0
0.78,-0.6875,0,0,0,0,0
0.781,-0.3125,0,0,0,0,0
0.782,-0.125,0,0,0,0,0
0.783,0,0,0,0,0,0
0.784,1.4375,0,0,0,0,0
0.785,2.5,0,0,0,0,0
0.786,2.625,0,0,0,0,0
0.787,2.8125,0,0,0,0,0
0.788,2.375,0,0,0,0,0
0.789,2.5,0,0,0,0,0
0.79,1.5625,0,0,0,0,0
0.791,1.25,0,0,0,0,0
0.792,1.0625,0,0,0,0,0
0.793,1.0625,0,0,0,0,0
0.794,1.3125,0,0,0,0,0
0.795,1.375,0,0,0,0,0
0.796,0.8125,0,0,0,0,0
0.797,0.75,0,0,0,0,0
0.798,0.6875,0,0,0,0,0
0.799,0,0,0,0,0,0
0.8,0,0,0,0,0,0
0.801,0,0,0,0,0,0
0.802,-0.3125,0,0,0,0,0
0.803,0,0,0,0,0,0
0.804,1.1875,0,0,0,0,0
0.805,2.1875,0,0,0,0,0
0.806,3.25,0,0,0,0,0
0.807,4.8125,0,0,0,0,0
0.808,5,0,0,0,0,0
0.809,5.3125,0,0,0,0,0
0.81,4.25,0,0,0,0,0
0.811,3.4375,0,0,0,0,0
0.812,2.8125,0,0,0,0,0
0.813,2.8125,0,0,0,0,0
0.814,2.8125,0,0,0,0,0
0.815,2.1875,0,0,0,0,0
0.816,1.5,0,0,0,0,0
0.817,1.875,0,0,0,0,0
0.818,1.5625,0,0,0,0,0
0.819,1.875,0,0,0,0,0
0.82,2.25,0,0,0,0,0
0.821,2.5,0,0,0,0,0
0.822,2.4375,0,0,0,0,0
0.823,3.4375,0,0,0,0,0
0.824,3.5,0,0,0,0,0
0.825,3.4375,0,0,0,0,0
0.826,2.6875,0,0,0,0,0
0.827,2.625,0,0,0,0,0
0.828,2.125,0,0,0,0,0
0.829,2.3125,0,0,0,0,0
0.83,2.0625,0,0,0,0,0
0.831,1.5625,0,0,0,0,0
0.832,1.4375,0,0,0,0,0
0.833,2.3125,0,0,0,0,0
0.834,2.375,0,0,0,0,0
0.835,2.625,0,0,0,0,0
0.836,2.5625,0,0,0,0,0
0.837,2.625,0,0,0,0,0
0.838,2.8125,0,0,0,0,0
0.839,2.625,0,0,0,0,0
0.84,3.8125,0,0,0,0,0
0.841,4.6875,0,0,0,0,0
0.842,4.4375,0,0,0,0,0
0.843,4.5,0,0,0,0,0
0.844,4.8125,0,0,0,0,0
0.845,5,0,0,0,0,0
0.846,4.375,0,0,0,0,0
0.847,4.0625,0,0,0,0,0
0.848,3.875,0,0,0,0,0
0.849,2.9375,0,0,0,0,0
0.85,2.875,0,0,0,0,0
0.851,2.8125,0,0,0,0,0
0.852,2.4375,0,0,0,0,0
0.853,2.625,0,0,0,0,0
0.854,2.625,0,0,0,0,0
0.855,2,0,0,0,0,0
0.856,2.375,0,0,0,0,0
0.857,2.3125,0,0,0,0,0
0.858,2.5625,0,0,0,0,0
0.859,3.125,0,0,0,0,0
0.86,3.125,0,0,0,0,0
0.861,3.25,0,0,0,0,0
0.862,3.6875,0,0,0,0,0
0.863,4.1875,0,0,0,0,0
0.864,3.9375,0,0,0,0,0
0.865,3.5625,0,0,0,0,0
0.866,4.0625,0,0,0,0,0
0.867,3.5625,0,0,0,0,0
0.868,3.375,0,0,0,0,0
0.869,2.8125,0,0,0,0,0
0.87,2.75,0,0,0,0,0
0.871,2.3125,0,0,0,0,0
0.872,1.25,0,0,0,0,0
0.873,0.625,0,0,0,0,0
0.874,0.5625,0,0,0,0,0
0.875,0.9375,0,0,0,0,0
0.876,0.75,0,0,0,0,0
0.877,0.9375,0,0,0,0,0
0.878,0.6875,0,0,0,0,0
0.879,1.6875,0,0,0,0,0
0.88,1.6875,0,0,0,0,0
0.881,1.375,0,0,0,0,0
0.882,1.375,0,0,0,0,0
0.883,1.25,0,0,0,0,0
0.884,1.3125,0,0,0,0,0
0.885,2.3125,0,0,0,0,0
0.886,2.6875,0,0,0,0,0
0.887,3.5625,0,0,0,0,0
0.888,4.6875,0,0,0,0,0
0.889,5.625,0,0,0,0,0
0.89,6.25,0,0,0,0,0
0.891,6.6875,0,0,0,0,0
0.892,6,0,0,0,0,0
0.893,5.3125,0,0,0,0,0
0.894,4.625,0,0,0,0,0
0.895,4.6875,0,0,0,0,0
0.896,4.125,0,0,0,0,0
0.897,4.1875,0,0,0,0,0
0.898,3.375,0,0,0,0,0
0.899,3.25,0,0,0,0,0
0.9,3.5,0,0,0,0,0
0.901,2.8125,0,0,0,0,0
0.902,2.125,0,0,0,0,0
0.903,2.5,0,0,0,0,0
0.904,2.25,0,0,0,0,0
0.905,1.375,0,0,0,0,0
0.906,2.1875,0,0,0,0,0
0.907,2.1875,0,0,0,0,0
0.908,2.125,0,0,0,0,0
0.909,2,0,0,0,0,0
0.91,1.8125,0,0,0,0,0
0.911,2.3125,0,0,0,0,0
0.912,2.8125,0,0,0,0,0
0.913,2.9375,0,0,0,0,0
0.914,3,0,0,0,0,0
0.915,2,0,0,0,0,0
0.916,3.25,0,0,0,0,0
0.917,2.8125,0,0,0,0,0
0.918,2.375,0,0,0,0,0
0.919,2.1875,0,0,0,0,0
0.92,2.5,0,0,0,0,0
0.921,3.25,0,0,0,0,0
0.922,3.25,0,0,0,0,0
0.923,3.25,0,0,0,0,0
0.924,3.5,0,0,0,0,0
0.925,3.25,0,0,0,0,0
0.926,2.5625,0,0,0,0,0
0.927,2.3125,0,0,0,0,0
0.928,2.0625,0,0,0,0,0
0.929,2.3125,0,0,0,0,0
0.93,2.3125,0,0,0,0,0
0.931,2.9375,0,0,0,0,0
0.932,2.875,0,0,0,0,0
0.933,2.8125,0,0,0,0,0
0.934,3.125,0,0,0,0,0
0.935,3.125,0,0,0,0,0
0.936,3.25,0,0,0,0,0
0.937,3.25,0,0,0,0,0
0.938,2.1875,0,0,0,0,0
0.939,2,0,0,0,0,0
0.94,1.5625,0,0,0,0,0
0.941,2,0,0,0,0,0
0.942,1.6875,0,0,0,0,0
0.943,1.375,0,0,0,0,0
0.944,2.8125,0,0,0,0,0
0.945,3.875,0,0,0,0,0
0.946,5.0625,0,0,0,0,0
0.947,4.375,0,0,0,0,0
0.948,3.6875,0,0,0,0,0
0.949,3.4375,0,0,0,0,0
0.95,3.9375,0,0,0,0,0
0.951,2.9375,0,0,0,0,0
0.952,2.4375,0,0,0,0,0
0.953,2,0,0,0,0,0
0.954,1.75,0,0,0,0,0
0.955,1.875,0,0,0,0,0
0.956,2.5,0,0,0,0,0
0.957,3.4375,0,0,0,0,0
0.958,3,0,0,0,0,0
0.959,2.5,0,0,0,0,0
0.96,2.9375,0,0,0,0,0
0.961,2.9375,0,0,0,0,0
0.962,4.125,0,0,0,0,0
0.963,4.6875,0,0,0,0,0
0.964,4.375,0,0,0,0,0
0.965,4.8125,0,0,0,0,0
0.966,4.8125,0,0,0,0,0
0.967,5.125,0,0,0,0,0
0.968,5.75,0,0,0,0,0
0.969,6.5625,0,0,0,0,0
0.97,6.5625,0,0,0,0,0
0.971,6.5625,0,0,0,0,0
0.972,6.5625,0,0,0,0,0
0.973,6.5625,0,0,0,0,0
0.974,5.5625,0,0,0,0,0
0.975,5.75,0,0,0,0,0
0.976,5.75,0,0,0,0,0
0.977,6.25,0,0,0,0,0
0.978,6.75,0,0,0,0,0
0.979,6.875,0,0,0,0,0
0.98,5.5625,0,0,0,0,0
0.981,5.3125,0,0,0,0,0
0.982,5.8125,0,0,0,0,0
0.983,5.625,0,0,0,0,0
0.984,5.625,0,0,0,0,0
0.985,6.0625,0,0,0,0,0
0.986,6.1875,0,0,0,0,0
0.987,6.6875,0,0,0,0,0
0.988,6.625,0,0,0,0,0
0.989,6.5625,0,0,0,0,0
0.99,6.3125,0,0,0,0,0
0.991,5.9375,0,0,0,0,0
0.992,5.0625,0,0,0,0,0
0.993,4.375,0,0,0,0,0
0.994,5.3125,0,0,0,0,0
0.995,5.4375,0,0,0,0,0
0.996,5.875,0,0,0,0,0
0.997,6.0625,0,0,0,0,0
0.998,6.625,0,0,0,0,0
0.999,6.5625,0,0,0,0,0
1,6.5625,0,0,0,0,0
1.001,5.9375,0,0,0,0,0
1.002,5.75,0,0,0,0,0
1.003,5.625,0,0,0,0,0
1.004,5.4375,0,0,0,0,0
1.005,5.75,0,0,0,0,0
1.006,5.5,0,0,0,0,0
1.007,4.8125,0,0,0,0,0
1.008,4.875,0,0,0,0,0
1.009,5.4375,0,0,0,0,0
1.01,6,0,0,0,0,0
1.011,5.625,0,0,0,0,0
1.012,5.4375,0,0,0,0,0
1.013,4.6875,0,0,0,0,0
1.014,5,0,0,0,0,0
1.015,5.125,0,0,0,0,0
1.016,5.25,0,0,0,0,0
1.017,5.4375,0,0,0,0,0
1.018,5.875,0,0,0,0,0
1.019,4.8125,0,0,0,0,0
1.02,4.5625,0,0,0,0,0
1.021,4.5,0,0,0,0,0
1.022,3.9375,0,0,0,0,0
1.023,4.0625,0,0,0,0,0
1.024,4,0,0,0,0,0
1.025,3.5625,0,0,0,0,0
1.026,3.625,0,0,0,0,0
1.027,3.875,0,0,0,0,0
1.028,3.3125,0,0,0,0,0
1.029,3.125,0,0,0,0,0
1.03,2.875,0,0,0,0,0
1.031,2.9375,0,0,0,0,0
1.032,3.8125,0,0,0,0,0
1.033,4.0625,0,0,0,0,0
1.034,3.4375,0,0,0,0,0
1.035,2.8125,0,0,0,0,0
1.036,2.3125,0,0,0,0,0
1.037,2,0,0,0,0,0
1.038,2.625,0,0,0,0,0
1.039,2.9375,0,0,0,0,0
1.04,2.9375,0,0,0,0,0
1.041,2.9375,0,0,0,0,0
1.042,2.5,0,0,0,0,0
1.043,1.5625,0,0,0,0,0
1.044,1.0625,0,0,0,0,0
1.045,1.25,0,0,0,0,0
1.046,1.5,0,0,0,0,0
1.047,2,0,0,0,0,0
1.048,1.75,0,0,0,0,0
1.049,1.25,0,0,0,0,0
1.05,0.4375,0,0,0,0,0
1.051,-0.625,0,0,0,0,0
1.052,-0.875,0,0,0,0,0
1.053,-1.125,0,0,0,0,0
1.054,1.3125,0,0,0,0,0
1.055,2.9375,0,0,0,0,0
1.056,3.375,0,0,0,0,0
1.057,3.4375,0,0,0,0,0
1.058,3.4375,0,0,0,0,0
1.059,3.5625,0,0,0,0,0
1.06,2.8125,0,0,0,0,0
1.061,1.6875,0,0,0,0,0
1.062,2.875,0,0,0,0,0
1.063,2.9375,0,0,0,0,0
1.064,3,0,0,0,0,0
1.065,2.9375,0,0,0,0,0
1.066,1.875,0,0,0,0,0
1.067,1.875,0,0,0,0,0
1.068,1.8125,0,0,0,0,0
1.069,1.6875,0,0,0,0,0
1.07,1.125,0,0,0,0,0
1.071,0.625,0,0,0,0,0
1.072,0.8125,0,0,0,0,0
1.073,1.25,0,0,0,0,0
1.074,1.0625,0,0,0,0,0
1.075,2,0,0,0,0,0
1.076,1.625,0,0,0,0,0
1.077,2,0,0,0,0,0
1.078,2.5625,0,0,0,0,0
1.079,3.25,0,0,0,0,0
1.08,2.75,0,0,0,0,0
1.081,2.1875,0,0,0,0,0
1.082,1.8125,0,0,0,0,0
1.083,1.6875,0,0,0,0,0
1.084,1.4375,0,0,0,0,0
1.085,1.375,0,0,0,0,0
1.086,1.5625,0,0,0,0,0
1.087,0.9375,0,0,0,0,0
1.088,0.8125,0,0,0,0,0
1.089,0.625,0,0,0,0,0
1.09,-0.1875,0,0,0,0,0
1.091,-0.625,0,0,0,0,0
1.092,-0.8125,0,0,0,0,0
1.093,-0.1875,0,0,0,0,0
1.094,1,0,0,0,0,0
1.095,1.25,0,0,0,0,0
1.096,0.75,0,0,0,0,0
1.097,0.3125,0,0,0,0,0
1.098,0.375,0,0,0,0,0
1.099,-0.3125,0,0,0,0,0
1.1,0.0625,0,0,0,0,0
1.101,1.375,0,0,0,0,0
1.102,1.4375,0,0,0,0,0
1.103,1.5625,0,0,0,0,0
1.104,0.75,0,0,0,0,0
1.105,1.5625,0,0,0,0,0
1.106,2.25,0,0,0,0,0
1.107,3.4375,0,0,0,0,0
1.108,3.4375,0,0,0,0,0
1.109,3.25,1,0,0,0,0
1.11,2.5625,0,0,0,0,0
1.111,1.375,0,0,0,0,0
1.112,2.0625,0,0,0,0,0
1.113,1.6875,0,0,0,0,0
1.114,1.875,0,0,0,0,0
1.115,1.5625,0,0,0,0,0
1.116,1.5,0,0,0,0,0
1.117,1.375,0,0,0,0,0
1.118,1.875,0,0,0,0,0
1.119,2.1875,0,0,0,0,0
1.12,2.375,0,0,0,0,0
1.121,2.5,0,0,0,0,0
1.122,3.1875,0,0,0,0,0
1.123,3.75,0,0,0,0,0
1.124,3,0,0,0,0,0
1.125,4.0625,0,0,0,0,0
1.126,4.5625,0,0,0,0,0
1.127,5.4375,0,0,0,0,0
1.128,5.875,0,0,0,0,0
1.129,6.5625,0,0,0,0,0
1.13,7.5625,0,0,0,0,0
1.131,7.625,0,0,0,0,0
1.132,8.375,0,0,0,0,0
1.133,9.1875,0,0,0,0,0
1.134,11,0,0,0,0,0
1.135,12.188,0,0,0,0,0
1.136,12,0,0,0,0,0
1.137,11.875,0,0,0,0,0
1.138,12.938,0,0,0,0,0
1.139,14.063,0,0,0,0,0
1.14,16.375,0,0,0,0,0
1.141,18.875,0,0,0,0,0
1.142,21.625,0,0,0,0,0
1.143,24.813,0,0,0,0,0
1.144,27.125,0,0,0,0,0
1.145,29.688,0,0,0,0,0
1.146,32.188,0,0,0,0,0
1.147,34.188,0,0,0,0,0
1.148,35.375,0,0,0,0,0
1.149,36.875,0,0,0,0,0
1.15,38.438,0,0,0,0,0
1.151,39.688,0,0,0,0,0
1.152,39.375,0,1,0,0,0
1.153,39.813,0,0,0,0,0
1.154,39.625,0,0,0,0,0
1.155,38.25,0,0,0,0,0
1.156,36.813,0,0,0,0,0
1.157,34.375,0,0,0,0,0
1.158,31.875,0,0,0,0,0
1.159,28.563,0,0,0,0,0
1.16,24.75,0,0,0,0,0
1.161,20.438,0,0,0,0,0
1.162,15.875,0,0,0,0,0
1.163,9.6875,0,0,0,0,0
1.164,6.375,0,0,0,0,0
1.165,3.5625,0,0,0,0,0
1.166,-0.25,0,0,0,0,0
1.167,-4.25,0,0,0,0,0
1.168,-8.375,0,0,0,0,0
1.169,-12.063,0,0,0,0,0
1.17,-14.375,0,0,0,0,0
1.171,-17.5,0,0,0,0,0
1.172,-20.063,0,0,0,0,0
1.173,-22.5,0,0,0,0,0
1.174,-25.438,0,0,0,0,0
1.175,-28.625,0,0,0,0,0
1.176,-31.5,0,0,0,0,0
1.177,-34.063,0,0,0,0,0
1.178,-34.5,0,0,0,0,0
1.179,-34.563,0,0,0,0,0
1.18,-35.625,0,0,0,0,0
1.181,-35.5,0,0,0,0,0
1.182,-35.063,0,0,0,0,0
1.183,-33.75,0,0,0,0,0
1.184,-32.375,0,0,0,0,0
1.185,-31.438,0,0,0,0,0
1.186,-29.188,0,0,0,0,0
1.187,-27.188,0,0,0,0,0
1.188,-26.063,0,0,0,0,0
1.189,-25.813,0,0,0,0,0
1.19,-25.438,0,0,0,0,0
1.191,-24.688,0,0,0,0,0
1.192,-23.5,0,0,0,0,0
1.193,-22.063,0,0,0,0,0
1.194,-21.25,0,0,0,0,0
1.195,-20.625,0,0,0,0,0
1.196,-20.313,0,0,0,0,0
1.197,-20.188,0,0,0,0,0
1.198,-18.688,0,0,0,0,0
1.199,-17.5,0,0,0,0,0
1.2,-16.625,0,0,0,0,0
1.201,-15.813,0,0,0,0,0
1.202,-16.313,0,0,0,0,0
1.203,-16.125,0,0,0,0,0
1.204,-14.688,0,0,0,0,0
1.205,-13.938,0,0,0,0,0
1.206,-13.813,0,0,0,0,0
1.207,-13.625,0,0,0,0,0
1.208,-13.313,0,0,0,0,0
1.209,-13.438,0,0,0,0,0
1.21,-13.438,0,0,0,0,0
1.211,-13.75,0,0,0,0,0
1.212,-13.688,0,0,0,0,0
1.213,-13.75,0,0,0,0,0
1.214,-13,0,0,0,0,0
1.215,-12.813,0,0,0,0,0
1.216,-12.938,0,0,0,0,0
1.217,-12.688,0,0,0,0,0
1.218,-11.875,0,0,0,0,0
1.219,-11.438,0,0,0,0,0
1.22,-11.625,0,0,0,0,0
1.221,-10.938,0,0,0,0,0
1.222,-10.625,0,0,0,0,0
1.223,-10.813,0,0,0,0,0
1.224,-10.438,0,0,0,0,0
1.225,-10.813,0,0,0,0,0
1.226,-10.313,0,0,0,0,0
1.227,-10.188,0,0,0,0,0
1.228,-10.813,0,0,0,0,0
1.229,-11.125,0,0,0,0,0
1.23,-11.125,0,0,0,0,0
1.231,-10.938,0,0,0,0,0
1.232,-11,0,0,0,0,0
1.233,-10.625,0,0,0,0,0
1.234,-10.375,0,0,0,0,0
1.235,-10.313,0,0,0,0,0
1.236,-10.688,0,0,0,0,0
1.237,-11.125,0,0,0,0,0
1.238,-11.188,0,0,0,0,0
1.239,-11.25,0,0,0,0,0
1.24,-11.125,0,0,0,0,0
1.241,-10.813,0,0,0,0,0
1.242,-11.063,0,0,0,0,0
1.243,-11.563,0,0,0,0,0
1.244,-11.688,0,0,0,0,0
1.245,-11.75,0,0,0,0,0
1.246,-11.75,0,0,0,0,0
1.247,-12.5,0,0,0,0,0
1.248,-11.625,0,0,0,0,0
1.249,-10.625,0,0,0,0,0
1.25,-9.875,0,0,0,0,0
1.251,-9.375,0,0,0,0,0
1.252,-9.6875,0,0,0,0,0
1.253,-9.875,0,0,0,0,0
1.254,-10.688,0,0,0,0,0
1.255,-10.313,0,0,0,0,0
1.256,-8.5,0,0,0,0,0
1.257,-6.75,0,0,0,0,0
1.258,-5.4375,0,0,0,0,0
1.259,-4.25,0,0,0,0,0
1.26,-4.0625,0,0,0,0,0
1.261,-3.9375,0,0,0,0,0
1.262,-4.8125,0,0,0,0,0
1.263,-5.1875,0,0,0,0,0
1.264,-4.5625,0,0,0,0,0
1.265,-3.9375,0,0,0,0,0
1.266,-3.375,0,0,0,0,0
1.267,-3,0,0,0,0,0
1.268,-2.3125,0,0,0,0,0
1.269,-0.9375,0,0,0,0,0
1.27,0.4375,0,0,0,0,0
1.271,1.5625,0,0,0,0,0
1.272,1.1875,0,0,0,0,0
1.273,1.0625,0,0,0,0,0
1.274,0.3125,0,0,0,0,0
1.275,-0.1875,0,0,0,0,0
1.276,0.375,0,0,0,0,0
1.277,1.25,0,0,0,0,0
1.278,1.6875,0,0,0,0,0
1.279,2.3125,0,0,1,0,0
1.28,2.6875,0,0,0,0,0
1.281,2.1875,0,0,0,0,0
1.282,2.375,0,0,0,0,0
1.283,2.1875,0,0,0,0,0
1.284,2.6875,0,0,0,0,0
1.285,2.3125,0,0,0,0,0
1.286,2.25,0,0,0,0,0
1.287,2,0,0,0,0,0
1.288,1.8125,0,0,0,0,0
1.289,2.5,0,0,0,0,0
1.29,2.6875,0,0,0,0,0
1.291,1.6875,0,0,0,0,0
1.292,1.8125,0,0,0,0,0
1.293,2.5,0,0,0,0,0
1.294,1.9375,0,0,0,0,0
1.295,2,0,0,0,0,0
1.296,1.875,0,0,0,0,0
1.297,2,0,0,0,0,0
1.298,2.75,0,0,0,0,0
1.299,2.8125,0,0,0,0,0
1.3,3,0,0,0,0,0
1.301,3.25,0,0,0,0,0
1.302,2.8125,0,0,0,0,0
1.303,2.625,0,0,0,0,0
1.304,2,0,0,0,0,0
1.305,1.25,0,0,0,0,0
1.306,2.375,0,0,0,0,0
1.307,2.3125,0,0,0,0,0
1.308,3.0625,0,0,0,0,0
1.309,4.0625,0,0,0,0,0
1.31,3.75,0,0,0,0,0
1.311,2.9375,0,0,0,0,0
1.312,2.75,0,0,0,0,0
1.313,2.5,0,0,0,0,0
1.314,3.25,0,0,0,0,0
1.315,2.9375,0,0,0,0,0
1.316,2.875,0,0,0,0,0
1.317,2.8125,0,0,0,0,0
1.318,2.5625,0,0,0,0,0
1.319,2.3125,0,0,0,0,0
1.32,1.875,0,0,0,0,0
1.321,1.875,0,0,0,0,0
1.322,1.5625,0,0,0,0,0
1.323,1.5625,0,0,0,0,0
1.324,1.9375,0,0,0,0,0
1.325,2.3125,0,0,0,0,0
1.326,2.6875,0,0,0,0,0
1.327,2.5,0,0,0,0,0
1.328,2.8125,0,0,0,0,0
1.329,3.875,0,0,0,0,0
1.33,4,0,0,0,0,0
1.331,4.6875,0,0,0,0,0
1.332,4.4375,0,0,0,0,0
1.333,3.75,0,0,0,0,0
1.334,4.3125,0,0,0,0,0
1.335,3.875,0,0,0,0,0
1.336,3.625,0,0,0,0,0
1.337,3.75,0,0,0,0,0
1.338,3.5625,0,0,0,0,0
1.339,3.75,0,0,0,0,0
1.34,3.0625,0,0,0,0,0
1.341,3.25,0,0,0,0,0
1.342,3.1875,0,0,0,0,0
1.343,3.4375,0,0,0,0,0
1.344,3.875,0,0,0,0,0
1.345,4.0625,0,0,0,0,0
1.346,4.125,0,0,0,0,0
1.347,3.75,0,0,0,0,0
1.348,4.125,0,0,0,0,0
1.349,4.0625,0,0,0,0,0
1.35,3.8125,0,0,0,0,0
1.351,3.875,0,0,0,0,0
1.352,3.875,0,0,0,0,0
1.353,4.375,0,0,0,0,0
1.354,3.8125,0,0,0,0,0
1.355,3.5625,0,0,0,0,0
1.356,3.1875,0,0,0,0,0
1.357,2.9375,0,0,0,0,0
1.358,3,0,0,0,0,0
1.359,3.25,0,0,0,0,0
1.36,3.1875,0,0,0,0,0
1.361,3.125,0,0,0,0,0
1.362,2.8125,0,0,0,0,0
1.363,2,0,0,0,0,0
1.364,2.375,0,0,0,0,0
1.365,2.3125,0,0,0,0,0
1.366,3.5625,0,0,0,0,0
1.367,5.3125,0,0,0,0,0
1.368,5.875,0,0,0,0,0
1.369,5.625,0,0,0,0,0
1.37,5.6875,0,0,0,0,0
1.371,4.8125,0,0,0,0,0
1.372,4.6875,0,0,0,0,0
1.373,4.1875,0,0,0,0,0
1.374,4.25,0,0,0,0,0
1.375,4.375,0,0,0,0,0
1.376,5.4375,0,0,0,0,0
1.377,5.9375,0,0,0,0,0
1.378,6.5625,0,0,0,0,0
1.379,6.25,0,0,0,0,0
1.38,5.3125,0,0,0,0,0
1.381,4.375,0,0,0,0,0
1.382,4.875,0,0,0,0,0
1.383,5.625,0,0,0,0,0
1.384,5.875,0,0,0,0,0
1.385,5.625,0,0,0,0,0
1.386,5.125,0,0,0,0,0
1.387,5.125,0,0,0,0,0
1.388,5.25,0,0,0,0,0
1.389,5.125,0,0,0,0,0
1.39,5.1875,0,0,0,0,0
1.391,5.625,0,0,0,0,0
1.392,5.375,0,0,0,0,0
1.393,5.75,0,0,0,0,0
1.394,6.5,0,0,0,0,0
1.395,7.5,0,0,0,0,0
1.396,7.25,0,0,0,0,0
1.397,7.3125,0,0,0,0,0
1.398,6.875,0,0,0,0,0
1.399,6.5625,0,0,0,0,0
1.4,6.125,0,0,0,0,0
1.401,5.75,0,0,0,0,0
1.402,6.0625,0,0,0,0,0
1.403,5.9375,0,0,0,0,0
1.404,6.6875,0,0,0,0,0
1.405,7.8125,0,0,0,0,0
1.406,7.6875,0,0,0,0,0
1.407,7.625,0,0,0,0,0
1.408,6.9375,0,0,0,0,0
1.409,7.625,0,0,0,0,0
1.41,7.8125,0,0,0,0,0
1.411,8.25,0,0,0,0,0
1.412,8.0625,0,0,0,0,0
1.413,8.125,0,0,0,0,0
1.414,6.75,0,0,0,0,0
1.415,6.6875,0,0,0,0,0
1.416,6.25,0,0,0,0,0
1.417,6.375,0,0,0,0,0
1.418,6.9375,0,0,0,0,0
1.419,6.6875,0,0,0,0,0
1.42,6.75,0,0,0,0,0
1.421,6.6875,0,0,0,0,0
1.422,6.5625,0,0,0,0,0
1.423,6.5625,0,0,0,0,0
1.424,6.25,0,0,0,0,0
1.425,6.25,0,0,0,0,0
1.426,6.1875,0,0,0,0,0
1.427,6.0625,0,0,0,0,0
1.428,6.625,0,0,0,0,0
1.429,7.3125,0,0,0,0,0
1.43,7.875,0,0,0,0,0
1.431,8.5625,0,0,0,0,0
1.432,9.25,0,0,0,0,0
1.433,9.5,0,0,0,0,0
1.434,9,0,0,0,0,0
1.435,9.375,0,0,0,0,0
1.436,8.6875,0,0,0,0,0
1.437,8.4375,0,0,0,0,0
1.438,8.125,0,0,0,0,0
1.439,8.25,0,0,0,0,0
1.44,8.8125,0,0,0,0,0
1.441,8.875,0,0,0,0,0
1.442,9.25,0,0,0,0,0
1.443,9.1875,0,0,0,0,0
1.444,9.5,0,0,0,0,0
1.445,9.1875,0,0,0,0,0
1.446,9.0625,0,0,0,0,0
1.447,9.5,0,0,0,0,0
1.448,9.875,0,0,0,0,0
1.449,9.5,0,0,0,0,0
1.45,8.5,0,0,0,0,0
1.451,7.8125,0,0,0,0,0
1.452,9.25,0,0,0,0,0
1.453,10.313,0,0,0,0,0
1.454,10.875,0,0,0,0,0
1.455,11.25,0,0,0,0,0
1.456,10,0,0,0,0,0
1.457,9.0625,0,0,0,0,0
1.458,10.125,0,0,0,0,0
1.459,11.25,0,0,0,0,0
1.46,12.25,0,0,0,0,0
1.461,12.813,0,0,0,0,0
1.462,11.75,0,0,0,0,0
1.463,10.625,0,0,0,0,0
1.464,10.875,0,0,0,0,0
1.465,10,0,0,0,0,0
1.466,10.375,0,0,0,0,0
1.467,10,0,0,0,0,0
1.468,9.4375,0,0,0,0,0
1.469,9.375,0,0,0,1,0
1.47,9.75,0,0,0,0,0
1.471,9.6875,0,0,0,0,0
1.472,9,0,0,0,0,0
1.473,9.0625,0,0,0,0,0
1.474,9.5,0,0,0,0,0
1.475,10.313,0,0,0,0,0
1.476,10.188,0,0,0,0,0
1.477,9.5,0,0,0,0,0
1.478,9.5,0,0,0,0,0
1.479,9.1875,0,0,0,0,0
1.48,8.875,0,0,0,0,0
1.481,8.75,0,0,0,0,0
1.482,8.875,0,0,0,0,0
1.483,8.75,0,0,0,0,0
1.484,8.0625,0,0,0,0,0
1.485,8.75,0,0,0,0,0
1.486,8.5,0,0,0,0,0
1.487,8.25,0,0,0,0,0
1.488,8.25,0,0,0,0,0
1.489,8.4375,0,0,0,0,0
1.49,7.4375,0,0,0,0,0
1.491,7.9375,0,0,0,0,0
1.492,7.6875,0,0,0,0,0
1.493,7.3125,0,0,0,0,0
1.494,7,0,0,0,0,0
1.495,7.1875,0,0,0,0,0
1.496,6.75,0,0,0,0,0
1.497,7,0,0,0,0,0
1.498,6.875,0,0,0,0,0
1.499,6.5625,0,0,0,0,0
1.5,6.5625,0,0,0,0,0
1.501,6.5625,0,0,0,0,0
1.502,6.125,0,0,0,0,0
1.503,6.25,0,0,0,0,0
1.504,5.375,0,0,0,0,0
1.505,5,0,0,0,0,0
1.506,4.125,0,0,0,0,0
1.507,4.8125,0,0,0,0,0
1.508,5.0625,0,0,0,0,0
1.509,4.8125,0,0,0,0,0
1.51,4.6875,0,0,0,0,0
1.511,4.0625,0,0,0,0,0
1.512,3.0625,0,0,0,0,0
1.513,2.8125,0,0,0,0,0
1.514,2.8125,0,0,0,0,0
1.515,2.8125,0,0,0,0,0
1.516,3.25,0,0,0,0,0
1.517,3.4375,0,0,0,0,0
1.518,3.6875,0,0,0,0,0
1.519,3.4375,0,0,0,0,0
1.52,4,0,0,0,0,0
1.521,3.875,0,0,0,0,0
1.522,3.6875,0,0,0,0,0
1.523,4.0625,0,0,0,0,0
1.524,3.8125,0,0,0,0,0
1.525,3.75,0,0,0,0,0
1.526,2.5625,0,0,0,0,0
1.527,1.6875,0,0,0,0,0
1.528,0.625,0,0,0,0,0
1.529,0.9375,0,0,0,0,0
1.53,1,0,0,0,0,0
1.531,0.9375,0,0,0,0,0
1.532,3.125,0,0,0,0,0
1.533,4.5,0,0,0,0,0
1.534,4.6875,0,0,0,0,0
1.535,4.375,0,0,0,0,0
1.536,3.8125,0,0,0,0,0
1.537,3.75,0,0,0,0,0
1.538,3,0,0,0,0,1
1.539,3.125,0,0,0,0,0
1.54,3,0,0,0,0,0
1.541,3.125,0,0,0,0,0
1.542,3.125,0,0,0,0,0
1.543,2.9375,0,0,0,0,0
1.544,3.6875,0,0,0,0,0
1.545,3.75,0,0,0,0,0
1.546,3.1875,0,0,0,0,0
1.547,2.9375,0,0,0,0,0
1.548,3.1875,0,0,0,0,0
1.549,3.75,0,0,0,0,0
1.55,3.625,0,0,0,0,0
1.551,4.0625,0,0,0,0,0
1.552,3.8125,0,0,0,0,0
1.553,2.8125,0,0,0,0,0
1.554,2.375,0,0,0,0,0
1.555,1.25,0,0,0,0,0
1.556,1.625,0,0,0,0,0
1.557,2.1875,0,0,0,0,0
1.558,2.375,0,0,0,0,0
1.559,2.625,0,0,0,0,0
1.56,2.9375,0,0,0,0,0
1.561,3.25,0,0,0,0,0
1.562,2.875,0,0,0,0,0
1.563,2,0,0,0,0,0
1.564,1.1875,0,0,0,0,0
1.565,0.75,0,0,0,0,0
1.566,0.4375,0,0,0,0,0
1.567,0,0,0,0,0,0
1.568,-0.4375,0,0,0,0,0
1.569,-0.8125,0,0,0,0,0
1.57,0.75,0,0,0,0,0
1.571,1.375,0,0,0,0,0
1.572,0.625,0,0,0,0,0
1.573,0.9375,0,0,0,0,0
1.574,1.1875,0,0,0,0,0
1.575,1.25,0,0,0,0,0
1.576,1.4375,0,0,0,0,0
1.577,1.0625,0,0,0,0,0
1.578,1.8125,0,0,0,0,0
1.579,2,0,0,0,0,0
1.58,1.8125,0,0,0,0,0
1.581,1.375,0,0,0,0,0
1.582,1.375,0,0,0,0,0
1.583,1.6875,0,0,0,0,0
1.584,2.375,0,0,0,0,0
1.585,2,0,0,0,0,0
1.586,1.5,0,0,0,0,0
1.587,2,0,0,0,0,0
1.588,2.0625,0,0,0,0,0
1.589,2.3125,0,0,0,0,0
1.59,2.4375,0,0,0,0,0
1.591,2.5,0,0,0,0,0
1.592,3.25,0,0,0,0,0
1.593,3.125,0,0,0,0,0
1.594,2.5,0,0,0,0,0
1.595,1.6875,0,0,0,0,0
1.596,1.5,0,0,0,0,0
1.597,1.875,0,0,0,0,0
1.598,1.75,0,0,0,0,0
1.599,1.375,0,0,0,0,0
1.6,1,0,0,0,0,0
1.601,0.125,0,0,0,0,0
1.602,0.75,0,0,0,0,0
1.603,0.75,0,0,0,0,0
1.604,0.25,0,0,0,0,0
1.605,0.75,0,0,0,0,0
1.606,2.5,0,0,0,0,0
1.607,2.8125,0,0,0,0,0
1.608,4.0625,0,0,0,0,0
1.609,5,0,0,0,0,0
1.61,4.6875,0,0,0,0,0
1.611,3.75,0,0,0,0,0
1.612,3.125,0,0,0,0,0
1.613,2.5,0,0,0,0,0
1.614,2.1875,0,0,0,0,0
1.615,1.875,0,0,0,0,0
1.616,2.6875,0,0,0,0,0
1.617,2,0,0,0,0,0
1.618,2.1875,0,0,0,0,0
1.619,2.8125,0,0,0,0,0
1.62,4.0625,0,0,0,0,0
1.621,5,0,0,0,0,0
1.622,5.75,0,0,0,0,0
1.623,5.75,0,0,0,0,0
1.624,5.375,0,0,0,0,0
1.625,5,0,0,0,0,0
1.626,4.4375,0,0,0,0,0
1.627,4.1875,0,0,0,0,0
1.628,4.3125,0,0,0,0,0
1.629,4.375,0,0,0,0,0
1.63,4.375,0,0,0,0,0
1.631,4.375,0,0,0,0,0
1.632,4.875,0,0,0,0,0
1.633,5,0,0,0,0,0
1.634,4.5,0,0,0,0,0
1.635,3.75,0,0,0,0,0
1.636,3.375,0,0,0,0,0
1.637,3.5625,0,0,0,0,0
1.638,3.625,0,0,0,0,0
1.639,4.0625,0,0,0,0,0
1.64,4,0,0,0,0,0
1.641,3.875,0,0,0,0,0
1.642,4.375,0,0,0,0,0
1.643,4.375,0,0,0,0,0
1.644,4.125,0,0,0,0,0
1.645,4.6875,0,0,0,0,0
1.646,4.0625,0,0,0,0,0
1.647,3.4375,0,0,0,0,0
1.648,3.6875,0,0,0,0,0
1.649,3.75,0,0,0,0,0
1.65,3.5,0,0,0,0,0
1.651,3.25,0,0,0,0,0
1.652,3.3125,0,0,0,0,0
1.653,3.4375,0,0,0,0,0
1.654,3.3125,0,0,0,0,0
1.655,3.75,0,0,0,0,0
1.656,3.125,0,0,0,0,0
1.657,3.4375,0,0,0,0,0
1.658,2.9375,0,0,0,0,0
1.659,2.9375,0,0,0,0,0
1.66,3.0625,0,0,0,0,0
1.661,2.625,0,0,0,0,0
1.662,2.6875,0,0,0,0,0
1.663,2.9375,0,0,0,0,0
1.664,3.5,0,0,0,0,0
1.665,3.25,0,0,0,0,0
1.666,3.375,0,0,0,0,0
1.667,2.8125,0,0,0,0,0
1.668,3.5,0,0,0,0,0
1.669,3.4375,0,0,0,0,0
1.67,3.0625,0,0,0,0,0
1.671,2.9375,0,0,0,0,0
1.672,2.6875,0,0,0,0,0
1.673,2,0,0,0,0,0
1.674,2.25,0,0,0,0,0
1.675,2.5,0,0,0,0,0
1.676,2.9375,0,0,0,0,0
1.677,3.125,0,0,0,0,0
1.678,2.8125,0,0,0,0,0
1.679,2.3125,0,0,0,0,0
1.68,2.625,0,0,0,0,0
1.681,2.8125,0,0,0,0,0
1.682,3.5,0,0,0,0,0
1.683,4.1875,0,0,0,0,0
1.684,4.9375,0,0,0,0,0
1.685,4.1875,0,0,0,0,0
1.686,3.5,0,0,0,0,0
1.687,2.8125,0,0,0,0,0
1.688,3.3125,0,0,0,0,0
1.689,3.5625,0,0,0,0,0
1.69,3,0,0,0,0,0
1.691,2.8125,0,0,0,0,0
1.692,3.125,0,0,0,0,0
1.693,2.8125,0,0,0,0,0
1.694,1.9375,0,0,0,0,0
1.695,2.5,0,0,0,0,0
1.696,3.125,0,0,0,0,0
1.697,3.25,0,0,0,0,0
1.698,2.75,0,0,0,0,0
1.699,2.5,0,0,0,0,0
1.7,3.3125,0,0,0,0,0
1.701,3.4375,0,0,0,0,0
1.702,3.25,0,0,0,0,0
1.703,3.875,0,0,0,0,0
1.704,3.375,0,0,0,0,0
1.705,3.75,0,0,0,0,0
1.706,3.6875,0,0,0,0,0
1.707,3.4375,0,0,0,0,0
1.708,3.5,0,0,0,0,0
1.709,3.4375,0,0,0,0,0
1.71,2.8125,0,0,0,0,0
1.711,3.75,0,0,0,0,0
1.712,3.5,0,0,0,0,0
1.713,3.25,0,0,0,0,0
1.714,3.3125,0,0,0,0,0
1.715,3.25,0,0,0,0,0
1.716,3.125,0,0,0,0,0
1.717,3.125,0,0,0,0,0
1.718,2.1875,0,0,0,0,0
1.719,1.25,0,0,0,0,0
1.72,1.375,0,0,0,0,0
1.721,1.875,0,0,0,0,0
1.722,2.375,0,0,0,0,0
1.723,2.9375,0,0,0,0,0
1.724,3.9375,0,0,0,0,0
1.725,3.75,0,0,0,0,0
1.726,4.1875,0,0,0,0,0
1.727,4.1875,0,0,0,0,0
1.728,3.9375,0,0,0,0,0
1.729,4.0625,0,0,0,0,0
1.73,3.5,0,0,0,0,0
1.731,3.4375,0,0,0,0,0
1.732,4,0,0,0,0,0
1.733,3.4375,0,0,0,0,0
1.734,3.375,0,0,0,0,0
1.735,3.4375,0,0,0,0,0
1.736,4.4375,0,0,0,0,0
1.737,4.0625,0,0,0,0,0
1.738,3.6875,0,0,0,0,0
1.739,3.875,0,0,0,0,0
1.74,3.5,0,0,0,0,0
1.741,4.5,0,0,0,0,0
1.742,4,0,0,0,0,0
1.743,3.4375,0,0,0,0,0
1.744,3.4375,0,0,0,0,0
1.745,4.375,0,0,0,0,0
1.746,3.75,0,0,0,0,0
1.747,3.5625,0,0,0,0,0
1.748,3.5625,0,0,0,0,0
1.749,3.5625,0,0,0,0,0
1.75,3.8125,0,0,0,0,0
1.751,3.5625,0,0,0,0,0
1.752,4.1875,0,0,0,0,0
1.753,5.125,0,0,0,0,0
1.754,5,0,0,0,0,0
1.755,5.125,0,0,0,0,0
1.756,5.25,0,0,0,0,0
1.757,5.3125,0,0,0,0,0
1.758,4.75,0,0,0,0,0
1.759,4.6875,0,0,0,0,0
1.76,5.1875,0,0,0,0,0
1.761,5,0,0,0,0,0
1.762,5.125,0,0,0,0,0
1.763,5.3125,0,0,0,0,0
1.764,6.125,0,0,0,0,0
1.765,6.375,0,0,0,0,0
1.766,6.3125,0,0,0,0,0
1.767,6.375,0,0,0,0,0
1.768,6.1875,0,0,0,0,0
1.769,5.625,0,0,0,0,0
1.77,6.5625,0,0,0,0,0
1.771,5.9375,0,0,0,0,0
1.772,5.3125,0,0,0,0,0
1.773,5,0,0,0,0,0
1.774,5.0625,0,0,0,0,0
1.775,5,0,0,0,0,0
1.776,5.6875,0,0,0,0,0
1.777,6.375,0,0,0,0,0
1.778,6.625,0,0,0,0,0
1.779,6.6875,0,0,0,0,0
1.78,7,0,0,0,0,0
1.781,6.875,0,0,0,0,0
1.782,7.0625,0,0,0,0,0
1.783,6.6875,0,0,0,0,0
1.784,5.9375,0,0,0,0,0
1.785,5.125,0,0,0,0,0
1.786,4.625,0,0,0,0,0
1.787,4.375,0,0,0,0,0
1.788,6.4375,0,0,0,0,0
1.789,8.875,0,0,0,0,0
1.79,8.75,0,0,0,0,0
1.791,9.375,0,0,0,0,0
1.792,8.8125,0,0,0,0,0
1.793,7.9375,0,0,0,0,0
1.794,7.375,0,0,0,0,0
1.795,7.9375,0,0,0,0,0
1.796,7.9375,0,0,0,0,0
1.797,8.125,0,0,0,0,0
1.798,7.8125,0,0,0,0,0
1.799,7.1875,0,0,0,0,0
1.8,7.4375,0,0,0,0,0
1.801,7,0,0,0,0,0
1.802,6.5,0,0,0,0,0
1.803,6.6875,0,0,0,0,0
1.804,6.6875,0,0,0,0,0
1.805,6.6875,0,0,0,0,0
1.806,5.875,0,0,0,0,0
1.807,5.625,0,0,0,0,0
1.808,5.375,0,0,0,0,0
1.809,5.625,0,0,0,0,0
1.81,5.8125,0,0,0,0,0
1.811,6.0625,0,0,0,0,0
1.812,5.9375,0,0,0,0,0
1.813,6.375,0,0,0,0,0
1.814,5.5,0,0,0,0,0
1.815,5.3125,0,0,0,0,0
1.816,6.0625,0,0,0,0,0
1.817,6.375,0,0,0,0,0
1.818,6.4375,0,0,0,0,0
1.819,6.0625,0,0,0,0,0
1.82,5.6875,0,0,0,0,0
1.821,5.125,0,0,0,0,0
1.822,4.75,0,0,0,0,0
1.823,4.1875,0,0,0,0,0
1.824,4,0,0,0,0,0
1.825,3.125,0,0,0,0,0
1.826,2.875,0,0,0,0,0
1.827,2.8125,0,0,0,0,0
1.828,1.875,0,0,0,0,0
1.829,2,0,0,0,0,0
1.83,2.1875,0,0,0,0,0
1.831,1.6875,0,0,0,0,0
1.832,1.625,0,0,0,0,0
1.833,2,0,0,0,0,0
1.834,2.5625,0,0,0,0,0
1.835,3.125,0,0,0,0,0
1.836,2.625,0,0,0,0,0
1.837,2.5,0,0,0,0,0
1.838,2.3125,0,0,0,0,0
1.839,1.6875,0,0,0,0,0
1.84,1.8125,0,0,0,0,0
1.841,1.875,0,0,0,0,0
1.842,2.1875,0,0,0,0,0
1.843,2.3125,0,0,0,0,0
1.844,1.6875,0,0,0,0,0
1.845,1.0625,0,0,0,0,0
1.846,0.75,0,0,0,0,0
1.847,0.3125,0,0,0,0,0
1.848,0.625,0,0,0,0,0
1.849,1.875,0,0,0,0,0
1.85,1.375,0,0,0,0,0
1.851,1.6875,0,0,0,0,0
1.852,1.5625,0,0,0,0,0
1.853,1.6875,0,0,0,0,0
1.854,3.1875,0,0,0,0,0
1.855,4.6875,0,0,0,0,0
1.856,4.875,0,0,0,0,0
1.857,5.3125,0,0,0,0,0
1.858,4.4375,0,0,0,0,0
1.859,4.0625,0,0,0,0,0
1.86,3.1875,0,0,0,0,0
1.861,2.3125,0,0,0,0,0
1.862,2.8125,0,0,0,0,0
1.863,2.8125,0,0,0,0,0
1.864,2.0625,0,0,0,0,0
1.865,1.0625,0,0,0,0,0
1.866,0.625,0,0,0,0,0
1.867,0.3125,0,0,0,0,0
1.868,1.625,0,0,0,0,0
1.869,1.6875,0,0,0,0,0
1.87,2.3125,0,0,0,0,0
1.871,2,0,0,0,0,0
1.872,1.8125,0,0,0,0,0
1.873,1.5625,0,0,0,0,0
1.874,2.4375,0,0,0,0,0
1.875,2.9375,0,0,0,0,0
1.876,2.4375,0,0,0,0,0
1.877,2,0,0,0,0,0
1.878,1.875,0,0,0,0,0
1.879,1.0625,0,0,0,0,0
1.88,2.125,0,0,0,0,0
1.881,3.4375,0,0,0,0,0
1.882,3.125,0,0,0,0,0
1.883,3.5625,0,0,0,0,0
1.884,3.375,0,0,0,0,0
1.885,3.125,0,0,0,0,0
1.886,3.5625,0,0,0,0,0
1.887,2.9375,0,0,0,0,0
1.888,2.875,0,0,0,0,0
1.889,2.8125,0,0,0,0,0
1.89,1.625,0,0,0,0,0
1.891,1.0625,0,0,0,0,0
1.892,0.4375,1,0,0,0,0
1.893,0.625,0,0,0,0,0
1.894,0.5,0,0,0,0,0
1.895,0.125,0,0,0,0,0
1.896,0.125,0,0,0,0,0
1.897,-0.1875,0,0,0,0,0
1.898,0.0625,0,0,0,0,0
1.899,-0.5,0,0,0,0,0
1.9,1.0625,0,0,0,0,0
1.901,1.0625,0,0,0,0,0
1.902,2.25,0,0,0,0,0
1.903,2.8125,0,0,0,0,0
1.904,2.4375,0,0,0,0,0
1.905,3.25,0,0,0,0,0
1.906,2.625,0,0,0,0,0
1.907,3.125,0,0,0,0,0
1.908,3.4375,0,0,0,0,0
1.909,3.75,0,0,0,0,0
1.91,3.0625,0,0,0,0,0
1.911,2.8125,0,0,0,0,0
1.912,2.4375,0,0,0,0,0
1.913,2.5,0,0,0,0,0
1.914,2.875,0,0,0,0,0
1.915,3.125,0,0,0,0,0
1.916,3.5625,0,0,0,0,0
1.917,4.0625,0,0,0,0,0
1.918,4,0,0,0,0,0
1.919,3.4375,0,0,0,0,0
1.92,3.8125,0,0,0,0,0
1.921,3.4375,0,0,0,0,0
1.922,4.4375,0,0,0,0,0
1.923,5.125,0,0,0,0,0
1.924,6.125,0,0,0,0,0
1.925,7.3125,0,0,0,0,0
1.926,7.3125,0,0,0,0,0
1.927,8.125,0,0,0,0,0
1.928,9.3125,0,0,0,0,0
1.929,10.625,0,0,0,0,0
1.93,11.688,0,0,0,0,0
1.931,13.125,0,0,0,0,0
1.932,14.625,0,0,0,0,0
1.933,16.875,0,0,0,0,0
1.934,19,0,0,0,0,0
1.935,21.563,0,0,0,0,0
1.936,23.125,0,0,0,0,0
1.937,24.375,0,0,0,0,0
1.938,26.438,0,0,0,0,0
1.939,27.938,0,0,0,0,0
1.94,28.688,0,0,0,0,0
1.941,29.688,0,0,0,0,0
1.942,31.813,0,0,0,0,0
1.943,34.188,0,0,0,0,0
1.944,37,0,0,0,0,0
1.945,38.75,0,0,0,0,0
1.946,39.625,0,0,0,0,0
1.947,40.313,0,0,0,0,0
1.948,42.125,0,0,0,0,0
1.949,42.813,0,0,0,0,0
1.95,42.313,0,0,0,0,0
1.951,41.688,0,0,0,0,0
1.952,39.188,0,0,0,0,0
1.953,36.25,0,0,0,0,0
1.954,32.625,0,0,0,0,0
1.955,29.813,0,1,0,0,0
1.956,26.938,0,0,0,0,0
1.957,23.25,0,0,0,0,0
1.958,17.688,0,0,0,0,0
1.959,12.813,0,0,0,0,0
1.96,8.3125,0,0,0,0,0
1.961,4.5,0,0,0,0,0
1.962,0.375,0,0,0,0,0
1.963,-4.375,0,0,0,0,0
1.964,-7.875,0,0,0,0,0
1.965,-10.625,0,0,0,0,0
1.966,-14.688,0,0,0,0,0
1.967,-17.5,0,0,0,0,0
1.968,-20.375,0,0,0,0,0
1.969,-23.125,0,0,0,0,0
1.97,-26.188,0,0,0,0,0
1.971,-29.25,0,0,0,0,0
1.972,-32.25,0,0,0,0,0
1.973,-33.75,0,0,0,0,0
1.974,-34.313,0,0,0,0,0
1.975,-35.5,0,0,0,0,0
1.976,-36,0,0,0,0,0
1.977,-36.438,0,0,0,0,0
1.978,-36.25,0,0,0,0,0
1.979,-35.625,0,0,0,0,0
1.98,-35.438,0,0,0,0,0
1.981,-33.625,0,0,0,0,0
1.982,-30.938,0,0,0,0,0
1.983,-28.438,0,0,0,0,0
1.984,-26.563,0,0,0,0,0
1.985,-24.875,0,0,0,0,0
1.986,-23.313,0,0,0,0,0
1.987,-22.375,0,0,0,0,0
1.988,-21.688,0,0,0,0,0
1.989,-20.938,0,0,0,0,0
1.99,-20.188,0,0,0,0,0
1.991,-19.563,0,0,0,0,0
1.992,-19.063,0,0,0,0,0
1.993,-18.625,0,0,0,0,0
1.994,-18.563,0,0,0,0,0
1.995,-18.313,0,0,0,0,0
1.996,-18.063,0,0,0,0,0
1.997,-18.438,0,0,0,0,0
1.998,-19.125,0,0,0,0,0
1.999,-19.25,0,0,0,0,0
2,-18.375,0,0,0,0,0
2.001,-17.688,0,0,0,0,0
2.002,-15.938,0,0,0,0,0
2.003,-14.563,0,0,0,0,0
2.004,-14.25,0,0,0,0,0
2.005,-13.313,0,0,0,0,0
2.006,-13.25,0,0,0,0,0
2.007,-12.813,0,0,0,0,0
2.008,-13.438,0,0,0,0,0
2.009,-13.75,0,0,0,0,0
2.01,-13.5,0,0,0,0,0
2.011,-13.313,0,0,0,0,0
2.012,-12.563,0,0,0,0,0
2.013,-10.938,0,0,0,0,0
2.014,-10.313,0,0,0,0,0
2.015,-10.5,0,0,0,0,0
2.016,-9.75,0,0,0,0,0
2.017,-10,0,0,0,0,0
2.018,-10.5,0,0,0,0,0
2.019,-10.188,0,0,0,0,0
2.02,-11.188,0,0,0,0,0
2.021,-11.438,0,0,0,0,0
2.022,-11.625,0,0,0,0,0
2.023,-11.75,0,0,0,0,0
2.024,-11.125,0,0,0,0,0
2.025,-10.625,0,0,0,0,0
2.026,-10.375,0,0,0,0,0
2.027,-10.813,0,0,0,0,0
2.028,-10.438,0,0,0,0,0
2.029,-10.5,0,0,0,0,0
2.03,-11.813,0,0,0,0,0
2.031,-12.375,0,0,0,0,0
2.032,-12.25,0,0,0,0,0
2.033,-12.375,0,0,0,0,0
2.034,-12.5,0,0,0,0,0
2.035,-12.688,0,0,0,0,0
2.036,-12.438,0,0,0,0,0
2.037,-12.063,0,0,0,0,0
2.038,-11.938,0,0,0,0,0
2.039,-12.063,0,0,0,0,0
2.04,-12.313,0,0,0,0,0
2.041,-12.375,0,0,0,0,0
2.042,-13.375,0,0,0,0,0
2.043,-13.438,0,0,0,0,0
2.044,-13,0,0,0,0,0
2.045,-12.188,0,0,0,0,0
2.046,-10.75,0,0,0,0,0
2.047,-9.375,0,0,0,0,0
2.048,-8.6875,0,0,0,0,0
2.049,-8.4375,0,0,0,0,0
2.05,-7.0625,0,0,0,0,0
2.051,-5.8125,0,0,0,0,0
2.052,-5.4375,0,0,0,0,0
2.053,-5.5,0,0,0,0,0
2.054,-4.9375,0,0,0,0,0
2.055,-4.5625,0,0,0,0,0
2.056,-4.4375,0,0,0,0,0
2.057,-4.875,0,0,0,0,0
2.058,-3.625,0,0,0,0,0
2.059,-1.875,0,0,0,0,0
2.06,-0.9375,0,0,0,0,0
2.061,-0.5,0,0,0,0,0
2.062,-0.9375,0,0,0,0,0
2.063,-1.25,0,0,0,0,0
2.064,-0.5,0,0,0,0,0
2.065,0.125,0,0,0,0,0
2.066,-0.0625,0,0,0,0,0
2.067,-0.3125,0,0,0,0,0
2.068,0.375,0,0,0,0,0
2.069,0.4375,0,0,0,0,0
2.07,0.9375,0,0,0,0,0
2.071,1.0625,0,0,0,0,0
2.072,1.5625,0,0,0,0,0
2.073,1.875,0,0,0,0,0
2.074,2.25,0,0,0,0,0
2.075,2.9375,0,0,0,0,0
2.076,2.5,0,0,0,0,0
2.077,2.8125,0,0,1,0,0
2.078,2.875,0,0,0,0,0
2.079,3.4375,0,0,0,0,0
2.08,3.1875,0,0,0,0,0
2.081,3.4375,0,0,0,0,0
2.082,2.9375,0,0,0,0,0
2.083,2.5,0,0,0,0,0
2.084,2.625,0,0,0,0,0
2.085,2.3125,0,0,0,0,0
2.086,1.5625,0,0,0,0,0
2.087,1.875,0,0,0,0,0
2.088,2.5625,0,0,0,0,0
2.089,2.3125,0,0,0,0,0
2.09,2.125,0,0,0,0,0
2.091,2,0,0,0,0,0
2.092,2.625,0,0,0,0,0
2.093,2.8125,0,0,0,0,0
2.094,2.5,0,0,0,0,0
2.095,2.9375,0,0,0,0,0
2.096,4.3125,0,0,0,0,0
2.097,5,0,0,0,0,0
2.098,5.125,0,0,0,0,0
2.099,5.3125,0,0,0,0,0
2.1,4.25,0,0,0,0,0
2.101,4.0625,0,0,0,0,0
2.102,3.75,0,0,0,0,0
2.103,4.0625,0,0,0,0,0
2.104,4.25,0,0,0,0,0
2.105,4.0625,0,0,0,0,0
2.106,3.3125,0,0,0,0,0
2.107,3.125,0,0,0,0,0
2.108,3.125,0,0,0,0,0
2.109,3.5625,0,0,0,0,0
2.11,3.5625,0,0,0,0,0
2.111,4.0625,0,0,0,0,0
2.112,3.375,0,0,0,0,0
2.113,2.8125,0,0,0,0,0
2.114,2.8125,0,0,0,0,0
2.115,2.625,0,0,0,0,0
2.116,3.9375,0,0,0,0,0
2.117,4.375,0,0,0,0,0
2.118,4.0625,0,0,0,0,0
2.119,4.1875,0,0,0,0,0
2.12,4.5,0,0,0,0,0
2.121,4.6875,0,0,0,0,0
2.122,4.75,0,0,0,0,0
2.123,4.8125,0,0,0,0,0
2.124,4.1875,0,0,0,0,0
2.125,3.25,0,0,0,0,0
2.126,2.875,0,0,0,0,0
2.127,1.875,0,0,0,0,0
2.128,1.8125,0,0,0,0,0
2.129,3.125,0,0,0,0,0
2.13,3.625,0,0,0,0,0
2.131,4.1875,0,0,0,0,0
2.132,4.125,0,0,0,0,0
2.133,4.0625,0,0,0,0,0
2.134,4,0,0,0,0,0
2.135,3.125,0,0,0,0,0
2.136,3.625,0,0,0,0,0
2.137,3.4375,0,0,0,0,0
2.138,3.5625,0,0,0,0,0
2.139,3.4375,0,0,0,0,0
2.14,3.3125,0,0,0,0,0
2.141,3.875,0,0,0,0,0
2.142,4,0,0,0,0,0
2.143,3.875,0,0,0,0,0
2.144,3.5,0,0,0,0,0
2.145,3.25,0,0,0,0,0
2.146,4.25,0,0,0,0,0
2.147,5,0,0,0,0,0
2.148,5.5,0,0,0,0,0
2.149,6.0625,0,0,0,0,0
2.15,6.0625,0,0,0,0,0
2.151,5.4375,0,0,0,0,0
2.152,5.1875,0,0,0,0,0
2.153,4.6875,0,0,0,0,0
2.154,4.625,0,0,0,0,0
2.155,4.6875,0,0,0,0,0
2.156,4.9375,0,0,0,0,0
2.157,5.3125,0,0,0,0,0
2.158,4.8125,0,0,0,0,0
2.159,4.6875,0,0,0,0,0
2.16,4,0,0,0,0,0
2.161,3.875,0,0,0,0,0
2.162,4.5,0,0,0,0,0
2.163,4.6875,0,0,0,0,0
2.164,4.375,0,0,0,0,0
2.165,4.6875,0,0,0,0,0
2.166,3.875,0,0,0,0,0
2.167,4.1875,0,0,0,0,0
2.168,4.25,0,0,0,0,0
2.169,4.6875,0,0,0,0,0
2.17,4.875,0,0,0,0,0
2.171,4.8125,0,0,0,0,0
2.172,4.1875,0,0,0,0,0
2.173,4.6875,0,0,0,0,0
2.174,5.125,0,0,0,0,0
2.175,5.75,0,0,0,0,0
2.176,5.3125,0,0,0,0,0
2.177,5,0,0,0,0,0
2.178,5.3125,0,0,0,0,0
2.179,5.3125,0,0,0,0,0
2.18,5.125,0,0,0,0,0
2.181,5.125,0,0,0,0,0
2.182,5.8125,0,0,0,0,0
2.183,6.5625,0,0,0,0,0
2.184,6.75,0,0,0,0,0
2.185,6.6875,0,0,0,0,0
2.186,5.8125,0,0,0,0,0
2.187,4.8125,0,0,0,0,0
2.188,5.25,0,0,0,0,0
2.189,5.3125,0,0,0,0,0
2.19,6.25,0,0,0,0,0
2.191,7,0,0,0,0,0
2.192,6.875,0,0,0,0,0
2.193,6.5625,0,0,0,0,0
2.194,6.75,0,0,0,0,0
2.195,6.375,0,0,0,0,0
2.196,6.75,0,0,0,0,0
2.197,7.5,0,0,0,0,0
2.198,7.1875,0,0,0,0,0
2.199,7.1875,0,0,0,0,0
2.2,7.375,0,0,0,0,0
2.201,7.1875,0,0,0,0,0
2.202,7.5625,0,0,0,0,0
2.203,7,0,0,0,0,0
2.204,7.75,0,0,0,0,0
2.205,7.5,0,0,0,0,0
2.206,7.8125,0,0,0,0,0
2.207,7.8125,0,0,0,0,0
2.208,7.0625,0,0,0,0,0
2.209,5.9375,0,0,0,0,0
2.21,6.4375,0,0,0,0,0
2.211,5.9375,0,0,0,0,0
2.212,6.1875,0,0,0,0,0
2.213,6.375,0,0,0,0,0
2.214,6.875,0,0,0,0,0
2.215,7.8125,0,0,0,0,0
2.216,7.6875,0,0,0,0,0
2.217,7.8125,0,0,0,0,0
2.218,8.125,0,0,0,0,0
2.219,8.125,0,0,0,0,0
2.22,8.0625,0,0,0,0,0
2.221,7.9375,0,0,0,0,0
2.222,8.0625,0,0,0,0,0
2.223,8.5625,0,0,0,0,0
2.224,8.8125,0,0,0,0,0
2.225,8.75,0,0,0,0,0
2.226,8.625,0,0,0,0,0
2.227,8.25,0,0,0,0,0
2.228,7.5625,0,0,0,0,0
2.229,6.5625,0,0,0,0,0
2.23,6.5,0,0,0,0,0
2.231,6.0625,0,0,0,0,0
2.232,6.125,0,0,0,0,0
2.233,6.25,0,0,0,0,0
2.234,7.75,0,0,0,0,0
2.235,8.4375,0,0,0,0,0
2.236,8.3125,0,0,0,0,0
2.237,9.0625,0,0,0,0,0
2.238,9.8125,0,0,0,0,0
2.239,11.063,0,0,0,0,0
2.24,11.438,0,0,0,0,0
2.241,12,0,0,0,0,0
2.242,11.938,0,0,0,0,0
2.243,11.688,0,0,0,0,0
2.244,11.25,0,0,0,0,0
2.245,11.063,0,0,0,0,0
2.246,11,0,0,0,0,0
2.247,10.938,0,0,0,0,0
2.248,11,0,0,0,0,0
2.249,11.25,0,0,0,0,0
2.25,11.25,0,0,0,0,0
2.251,11.375,0,0,0,0,0
2.252,10.438,0,0,0,0,0
2.253,9.1875,0,0,0,0,0
2.254,8.8125,0,0,0,0,0
2.255,9.375,0,0,0,0,0
2.256,9.8125,0,0,0,0,0
2.257,9.5,0,0,0,0,0
2.258,9.3125,0,0,0,0,0
2.259,10.438,0,0,0,0,0
2.26,10.188,0,0,0,0,0
2.261,10.75,0,0,0,0,0
2.262,10.25,0,0,0,1,0
2.263,9.8125,0,0,0,0,0
2.264,9.5625,0,0,0,0,0
2.265,9.6875,0,0,0,0,0
2.266,9.5,0,0,0,0,0
2.267,9.0625,0,0,0,0,0
2.268,10.188,0,0,0,0,0
2.269,10.75,0,0,0,0,0
2.27,11.5,0,0,0,0,0
2.271,12,0,0,0,0,0
2.272,10.875,0,0,0,0,0
2.273,10.313,0,0,0,0,0
2.274,9.5625,0,0,0,0,0
2.275,8.75,0,0,0,0,0
2.276,9,0,0,0,0,0
2.277,9.6875,0,0,0,0,0
2.278,10.063,0,0,0,0,0
2.279,9.8125,0,0,0,0,0
2.28,9.75,0,0,0,0,0
2.281,9.375,0,0,0,0,0
2.282,8.875,0,0,0,0,0
2.283,7.9375,0,0,0,0,0
2.284,8.25,0,0,0,0,0
2.285,7.625,0,0,0,0,0
2.286,8.5,0,0,0,0,0
2.287,8.75,0,0,0,0,0
2.288,8.25,0,0,0,0,0
2.289,7.9375,0,0,0,0,0
2.29,8.3125,0,0,0,0,0
2.291,8.4375,0,0,0,0,0
2.292,8.75,0,0,0,0,0
2.293,8.4375,0,0,0,0,0
2.294,7.875,0,0,0,0,0
2.295,7.1875,0,0,0,0,0
2.296,6.625,0,0,0,0,0
2.297,5.9375,0,0,0,0,0
2.298,6.4375,0,0,0,0,0
2.299,6.25,0,0,0,0,0
2.3,5.875,0,0,0,0,0
2.301,5.125,0,0,0,0,0
2.302,5.8125,0,0,0,0,0
2.303,5.625,0,0,0,0,0
2.304,5.375,0,0,0,0,0
2.305,5.625,0,0,0,0,0
2.306,5.875,0,0,0,0,0
2.307,5.9375,0,0,0,0,0
2.308,6.125,0,0,0,0,0
2.309,6.0625,0,0,0,0,0
2.31,5.625,0,0,0,0,0
2.311,5.75,0,0,0,0,0
2.312,5.4375,0,0,0,0,0
2.313,5,0,0,0,0,0
2.314,4.3125,0,0,0,0,0
2.315,5,0,0,0,0,0
2.316,4.25,0,0,0,0,0
2.317,3.5625,0,0,0,0,0
2.318,4.125,0,0,0,0,0
2.319,4.0625,0,0,0,0,0
2.32,4.9375,0,0,0,0,0
2.321,5.125,0,0,0,0,0
2.322,4.5625,0,0,0,0,0
2.323,3.5625,0,0,0,0,0
2.324,3.375,0,0,0,0,0
2.325,2.9375,0,0,0,0,0
2.326,2.375,0,0,0,0,0
2.327,1.875,0,0,0,0,0
2.328,1.1875,0,0,0,0,0
2.329,0.75,0,0,0,0,0
2.33,0.8125,0,0,0,0,0
2.331,0.9375,0,0,0,0,0
2.332,0.6875,0,0,0,0,0
2.333,0,0,0,0,0,0
2.334,0.375,0,0,0,0,0
2.335,0,0,0,0,0,0
2.336,1.125,0,0,0,0,0
2.337,2.8125,0,0,0,0,0
2.338,3.25,0,0,0,0,0
2.339,4.0625,0,0,0,0,0
2.34,5.125,0,0,0,0,0
2.341,6.0625,0,0,0,0,0
2.342,5.0625,0,0,0,0,0
2.343,3.875,0,0,0,0,0
2.344,3.6875,0,0,0,0,0
2.345,2.8125,0,0,0,0,0
2.346,2.3125,0,0,0,0,0
2.347,2.3125,0,0,0,0,0
2.348,2.0625,0,0,0,0,0
2.349,2.5,0,0,0,0,0
2.35,2.875,0,0,0,0,0
2.351,3.5625,0,0,0,0,0
2.352,3.5625,0,0,0,0,1
2.353,3.25,0,0,0,0,0
2.354,2.5,0,0,0,0,0
2.355,1.875,0,0,0,0,0
2.356,2,0,0,0,0,0
2.357,2.3125,0,0,0,0,0
2.358,2.4375,0,0,0,0,0
2.359,2.3125,0,0,0,0,0
2.36,2.0625,0,0,0,0,0
2.361,2.1875,0,0,0,0,0
2.362,2.0625,0,0,0,0,0
2.363,2.3125,0,0,0,0,0
2.364,2,0,0,0,0,0
2.365,2.1875,0,0,0,0,0
2.366,1.625,0,0,0,0,0
2.367,0.9375,0,0,0,0,0
2.368,2.125,0,0,0,0,0
2.369,2.9375,0,0,0,0,0
2.37,2.9375,0,0,0,0,0
2.371,2.9375,0,0,0,0,0
2.372,2.4375,0,0,0,0,0
2.373,2.3125,0,0,0,0,0
2.374,2.125,0,0,0,0,0
2.375,2.5,0,0,0,0,0
2.376,2.25,0,0,0,0,0
2.377,2.1875,0,0,0,0,0
2.378,1.625,0,0,0,0,0
2.379,0.9375,0,0,0,0,0
2.38,-0.1875,0,0,0,0,0
2.381,-0.8125,0,0,0,0,0
2.382,-0.125,0,0,0,0,0
2.383,-0.1875,0,0,0,0,0
2.384,-0.0625,0,0,0,0,0
2.385,0,0,0,0,0,0
2.386,0.625,0,0,0,0,0
2.387,1.875,0,0,0,0,0
2.388,1.5,0,0,0,0,0
2.389,0.9375,0,0,0,0,0
2.39,0.5,0,0,0,0,0
2.391,0.625,0,0,0,0,0
2.392,0.875,0,0,0,0,0
2.393,1.25,0,0,0,0,0
2.394,0.4375,0,0,0,0,0
2.395,-0.1875,0,0,0,0,0
2.396,0,0,0,0,0,0
2.397,0.9375,0,0,0,0,0
2.398,1.25,0,0,0,0,0
2.399,0.9375,0,0,0,0,0
2.4,0.5625,0,0,0,0,0
2.401,1.25,0,0,0,0,0
2.402,1,0,0,0,0,0
2.403,1.375,0,0,0,0,0
2.404,1.1875,0,0,0,0,0
2.405,0.75,0,0,0,0,0
2.406,0.75,0,0,0,0,0
2.407,1.6875,0,0,0,0,0
2.408,1.6875,0,0,0,0,0
2.409,1.375,0,0,0,0,0
2.41,1.125,0,0,0,0,0
2.411,1.5625,0,0,0,0,0
2.412,1.1875,0,0,0,0,0
2.413,1.6875,0,0,0,0,0
2.414,2.375,0,0,0,0,0
2.415,2.9375,0,0,0,0,0
2.416,2.25,0,0,0,0,0
2.417,2.5,0,0,0,0,0
2.418,1.25,0,0,0,0,0
2.419,0.125,0,0,0,0,0
2.42,0.4375,0,0,0,0,0
2.421,0.9375,0,0,0,0,0
2.422,0.875,0,0,0,0,0
2.423,0.4375,0,0,0,0,0
2.424,0.6875,0,0,0,0,0
2.425,0.625,0,0,0,0,0
2.426,0.0625,0,0,0,0,0
2.427,-0.1875,0,0,0,0,0
2.428,-0.125,0,0,0,0,0
2.429,-0.1875,0,0,0,0,0
2.43,-0.125,0,0,0,0,0
2.431,0.3125,0,0,0,0,0
2.432,1.125,0,0,0,0,0
2.433,1.25,0,0,0,0,0
2.434,1.25,0,0,0,0,0
2.435,1.25,0,0,0,0,0
2.436,2,0,0,0,0,0
2.437,3.4375,0,0,0,0,0
2.438,3.4375,0,0,0,0,0
2.439,2.8125,0,0,0,0,0
2.44,2.5,0,0,0,0,0
2.441,1.6875,0,0,0,0,0
2.442,1.3125,0,0,0,0,0
2.443,1.25,0,0,0,0,0
2.444,0.875,0,0,0,0,0
2.445,0.625,0,0,0,0,0
2.446,0.6875,0,0,0,0,0
2.447,0.75,0,0,0,0,0
2.448,0.6875,0,0,0,0,0
2.449,0.4375,0,0,0,0,0
2.45,0.9375,0,0,0,0,0
2.451,0.4375,0,0,0,0,0
2.452,0.9375,0,0,0,0,0
2.453,1.0625,0,0,0,0,0
2.454,1.1875,0,0,0,0,0
2.455,0.9375,0,0,0,0,0
2.456,0.5625,0,0,0,0,0
2.457,0.625,0,0,0,0,0
2.458,1.125,0,0,0,0,0
2.459,2.1875,0,0,0,0,0
2.46,2.875,0,0,0,0,0
2.461,3.875,0,0,0,0,0
2.462,3.6875,0,0,0,0,0
2.463,4.8125,0,0,0,0,0
2.464,4.5625,0,0,0,0,0
2.465,4.0625,0,0,0,0,0
2.466,3.1875,0,0,0,0,0
2.467,2.1875,0,0,0,0,0
2.468,1.4375,0,0,0,0,0
2.469,1.5625,0,0,0,0,0
2.47,1.4375,0,0,0,0,0
2.471,1.6875,0,0,0,0,0
2.472,1.75,0,0,0,0,0
2.473,1.5625,0,0,0,0,0
2.474,2,0,0,0,0,0
2.475,2.1875,0,0,0,0,0
2.476,1.9375,0,0,0,0,0
2.477,1.6875,0,0,0,0,0
2.478,1.875,0,0,0,0,0
2.479,2.8125,0,0,0,0,0
2.48,2.3125,0,0,0,0,0
2.481,2.5,0,0,0,0,0
2.482,2.0625,0,0,0,0,0
2.483,2.3125,0,0,0,0,0
2.484,3.125,0,0,0,0,0
2.485,3.125,0,0,0,0,0
2.486,2.4375,0,0,0,0,0
2.487,2.8125,0,0,0,0,0
2.488,2.5,0,0,0,0,0
2.489,1.5625,0,0,0,0,0
2.49,1.5625,0,0,0,0,0
2.491,0.75,0,0,0,0,0
2.492,0.6875,0,0,0,0,0
2.493,0.4375,0,0,0,0,0
2.494,1.0625,0,0,0,0,0
2.495,2.5,0,0,0,0,0
2.496,1.625,0,0,0,0,0
2.497,0.4375,0,0,0,0,0
2.498,-0.0625,0,0,0,0,0
2.499,-1.875,0,0,0,0,0
2.5,-1.6875,0,0,0,0,0
2.501,-1.75,0,0,0,0,0
2.502,-2,0,0,0,0,0
2.503,-1.25,0,0,0,0,0
2.504,-0.9375,0,0,0,0,0
2.505,-0.1875,0,0,0,0,0
2.506,0.875,0,0,0,0,0
2.507,0.9375,0,0,0,0,0
2.508,0.625,0,0,0,0,0
2.509,0.3125,0,0,0,0,0
2.51,0.3125,0,0,0,0,0
2.511,1.25,0,0,0,0,0
2.512,1.5625,0,0,0,0,0
2.513,1.5625,0,0,0,0,0
2.514,1.75,0,0,0,0,0
2.515,1.6875,0,0,0,0,0
2.516,1.8125,0,0,0,0,0
2.517,2.1875,0,0,0,0,0
2.518,2.6875,0,0,0,0,0
2.519,3.125,0,0,0,0,0
2.52,3.875,0,0,0,0,0
2.521,5,0,0,0,0,0
2.522,4.8125,0,0,0,0,0
2.523,4.5,0,0,0,0,0
2.524,3.6875,0,0,0,0,0
2.525,3.5625,0,0,0,0,0
2.526,3.375,0,0,0,0,0
2.527,2.8125,0,0,0,0,0
2.528,2.1875,0,0,0,0,0
2.529,2.3125,0,0,0,0,0
2.53,2.5625,0,0,0,0,0
2.531,2.8125,0,0,0,0,0
2.532,2.8125,0,0,0,0,0
2.533,2.9375,0,0,0,0,0
2.534,2.5,0,0,0,0,0
2.535,2.3125,0,0,0,0,0
2.536,1.8125,0,0,0,0,0
2.537,1.25,0,0,0,0,0
2.538,1.8125,0,0,0,0,0
2.539,2.5,0,0,0,0,0
2.54,2.5625,0,0,0,0,0
2.541,2.625,0,0,0,0,0
2.542,2.625,0,0,0,0,0
2.543,2.625,0,0,0,0,0
2.544,2.375,0,0,0,0,0
2.545,2,0,0,0,0,0
2.546,1.125,0,0,0,0,0
2.547,0.3125,0,0,0,0,0
2.548,0.8125,0,0,0,0,0
2.549,1.375,0,0,0,0,0
2.55,2.3125,0,0,0,0,0
2.551,3.25,0,0,0,0,0
2.552,3.8125,0,0,0,0,0
2.553,4.375,0,0,0,0,0
2.554,4.3125,0,0,0,0,0
2.555,4.1875,0,0,0,0,0
2.556,4.1875,0,0,0,0,0
2.557,4.1875,0,0,0,0,0
2.558,4.25,0,0,0,0,0
2.559,4.375,0,0,0,0,0
2.56,5.6875,0,0,0,0,0
2.561,7,0,0,0,0,0
2.562,6.9375,0,0,0,0,0
2.563,6.875,0,0,0,0,0
2.564,5.3125,0,0,0,0,0
2.565,3.75,0,0,0,0,0
2.566,3.75,0,0,0,0,0
2.567,3.75,0,0,0,0,0
2.568,3.875,0,0,0,0,0
2.569,4.0625,0,0,0,0,0
2.57,4.0625,0,0,0,0,0
2.571,4.0625,0,0,0,0,0
2.572,3.875,0,0,0,0,0
2.573,3.5625,0,0,0,0,0
2.574,4,0,0,0,0,0
2.575,4.375,0,0,0,0,0
2.576,4.5,0,0,0,0,0
2.577,4.6875,0,0,0,0,0
2.578,4.75,0,0,0,0,0
2.579,4.8125,0,0,0,0,0
2.58,4.375,0,0,0,0,0
2.581,3.875,0,0,0,0,0
2.582,4.5625,0,0,0,0,0
2.583,5.3125,0,0,0,0,0
2.584,6,0,0,0,0,0
2.585,6.6875,0,0,0,0,0
2.586,6.75,0,0,0,0,0
2.587,6.875,0,0,0,0,0
2.588,6.25,0,0,0,0,0
2.589,5.625,0,0,0,0,0
2.59,5.5,0,0,0,0,0
2.591,5.3125,0,0,0,0,0
2.592,5.875,0,0,0,0,0
2.593,6.5625,0,0,0,0,0
2.594,6.0625,0,0,0,0,0
2.595,5.4375,0,0,0,0,0
2.596,4.1875,0,0,0,0,0
2.597,2.9375,0,0,0,0,0
2.598,1.75,0,0,0,0,0
2.599,0.4375,0,0,0,0,0
2.6,0.75,0,0,0,0,0
2.601,1.0625,0,0,0,0,0
2.602,2.4375,0,0,0,0,0
2.603,3.75,0,0,0,0,0
2.604,4.625,0,0,0,0,0
2.605,5.4375,0,0,0,0,0
2.606,5.5,0,0,0,0,0
2.607,5.625,0,0,0,0,0
2.608,4.625,0,0,0,0,0
2.609,3.5625,0,0,0,0,0
2.61,3,0,0,0,0,0
2.611,2.5,0,0,0,0,0
2.612,2.3125,0,0,0,0,0
2.613,2,0,0,0,0,0
2.614,1.9375,0,0,0,0,0
2.615,1.875,0,0,0,0,0
2.616,1.8125,0,0,0,0,0
2.617,1.6875,0,0,0,0,0
2.618,1.6875,0,0,0,0,0
2.619,1.6875,0,0,0,0,0
2.62,1.6875,0,0,0,0,0
2.621,1.6875,0,0,0,0,0
2.622,1.25,0,0,0,0,0
2.623,0.75,0,0,0,0,0
2.624,0.8125,0,0,0,0,0
2.625,0.75,0,0,0,0,0
2.626,0.625,0,0,0,0,0
2.627,0.4375,0,0,0,0,0
2.628,1.0625,0,0,0,0,0
2.629,1.6875,0,0,0,0,0
2.63,1.875,0,0,0,0,0
2.631,2.1875,0,0,0,0,0
2.632,2,0,0,0,0,0
2.633,1.6875,0,0,0,0,0
2.634,1.3125,0,0,0,0,0
2.635,0.9375,0,0,0,0,0
2.636,0.375,0,0,0,0,0
2.637,-0.1875,0,0,0,0,0
2.638,-0.375,0,0,0,0,0
2.639,-0.625,0,0,0,0,0
2.64,-0.125,0,0,0,0,0
2.641,0.4375,0,0,0,0,0
2.642,0.4375,0,0,0,0,0
2.643,0.4375,0,0,0,0,0
2.644,0.4375,0,0,0,0,0
2.645,0.4375,0,0,0,0,0
2.646,0.375,0,0,0,0,0
2.647,0.3125,0,0,0,0,0
2.648,0.3125,0,0,0,0,0
2.649,0.3125,0,0,0,0,0
2.65,0.4375,0,0,0,0,0
2.651,0.625,0,0,0,0,0
2.652,0.625,0,0,0,0,0
2.653,0.625,0,0,0,0,0
2.654,0.375,0,0,0,0,0
2.655,0.125,0,0,0,0,0
2.656,1.0625,0,0,0,0,0
2.657,2,0,0,0,0,0
2.658,2.1875,0,0,0,0,0
2.659,2.5,0,0,0,0,0
2.66,2.3125,0,0,0,0,0
2.661,2,0,0,0,0,0
2.662,1.5625,0,0,0,0,0
2.663,1.0625,0,0,0,0,0
2.664,0.25,0,0,0,0,0
2.665,-0.625,0,0,0,0,0
2.666,-1.0625,0,0,0,0,0
2.667,-1.5625,0,0,0,0,0
2.668,-1.1875,0,0,0,0,0
2.669,-0.8125,0,0,0,0,0
2.67,-0.9375,0,0,0,0,0
2.671,-1.125,0,0,0,0,0
2.672,-0.3125,0,0,0,0,0
2.673,0.625,0,0,0,0,0
2.674,0.25,0,0,0,0,0
2.675,-0.1875,0,0,0,0,0
2.676,-0.625,0,0,0,0,0
2.677,-1.125,0,0,0,0,0
2.678,-1.1875,0,0,0,0,0
2.679,-1.25,0,0,0,0,0
2.68,-0.875,0,0,0,0,0
2.681,-0.5,0,0,0,0,0
2.682,0,0,0,0,0,0
2.683,0.4375,0,0,0,0,0
2.684,1.0625,0,0,0,0,0
2.685,1.6875,0,0,0,0,0
2.686,2.625,0,0,0,0,0
2.687,3.5625,0,0,0,0,0
2.688,3,0,0,0,0,0
2.689,2.5,0,0,0,0,0
2.69,2.1875,0,0,0,0,0
2.691,1.875,0,0,0,0,0
2.692,1.1875,0,0,0,0,0
2.693,0.4375,0,0,0,0,0
2.694,0.4375,0,0,0,0,0
2.695,0.4375,1,0,0,0,0
2.696,1,0,0,0,0,0
2.697,1.5625,0,0,0,0,0
2.698,1.4375,0,0,0,0,0
2.699,1.25,0,0,0,0,0
2.7,1.375,0,0,0,0,0
2.701,1.5625,0,0,0,0,0
2.702,1.3125,0,0,0,0,0
2.703,1.0625,0,0,0,0,0
2.704,0.625,0,0,0,0,0
2.705,0.125,0,0,0,0,0
2.706,0.0625,0,0,0,0,0
2.707,0,0,0,0,0,0
2.708,0.4375,0,0,0,0,0
2.709,0.9375,0,0,0,0,0
2.71,1.9375,0,0,0,0,0
2.711,2.9375,0,0,0,0,0
2.712,3.375,0,0,0,0,0
2.713,3.875,0,0,0,0,0
2.714,4.0625,0,0,0,0,0
2.715,4.1875,0,0,0,0,0
2.716,6.25,0,0,0,0,0
2.717,8.25,0,0,0,0,0
2.718,8.875,0,0,0,0,0
2.719,9.5,0,0,0,0,0
2.72,10.438,0,0,0,0,0
2.721,11.375,0,0,0,0,0
2.722,12.063,0,0,0,0,0
2.723,12.813,0,0,0,0,0
2.724,14.5,0,0,0,0,0
2.725,16.25,0,0,0,0,0
2.726,17.438,0,0,0,0,0
2.727,18.75,0,0,0,0,0
2.728,21.438,0,0,0,0,0
2.729,24.188,0,0,0,0,0
2.73,27.438,0,0,0,0,0
2.731,30.625,0,0,0,0,0
2.732,31.813,0,0,0,0,0
2.733,32.938,0,0,0,0,0
2.734,34.188,0,0,0,0,0
2.735,35.438,0,0,0,0,0
2.736,36.938,0,0,0,0,0
2.737,38.438,0,1,0,0,0
2.738,38.875,0,0,0,0,0
2.739,39.375,0,0,0,0,0
2.74,38.813,0,0,0,0,0
2.741,38.25,0,0,0,0,0
2.742,36.813,0,0,0,0,0
2.743,35.313,0,0,0,0,0
2.744,33.438,0,0,0,0,0
2.745,31.563,0,0,0,0,0
2.746,28.25,0,0,0,0,0
2.747,25,0,0,0,0,0
2.748,19.625,0,0,0,0,0
2.749,14.188,0,0,0,0,0
2.75,9.125,0,0,0,0,0
2.751,4.0625,0,0,0,0,0
2.752,0.1875,0,0,0,0,0
2.753,-3.75,0,0,0,0,0
2.754,-8.25,0,0,0,0,0
2.755,-12.813,0,0,0,0,0
2.756,-16.75,0,0,0,0,0
2.757,-20.625,0,0,0,0,0
2.758,-23.188,0,0,0,0,0
2.759,-25.813,0,0,0,0,0
2.76,-29.375,0,0,0,0,0
2.761,-33,0,0,0,0,0
2.762,-34.688,0,0,0,0,0
2.763,-36.438,0,0,0,0,0
2.764,-36.625,0,0,0,0,0
2.765,-36.875,0,0,0,0,0
2.766,-37.375,0,0,0,0,0
2.767,-38,0,0,0,0,0
2.768,-37.688,0,0,0,0,0
2.769,-37.375,0,0,0,0,0
2.77,-36,0,0,0,0,0
2.771,-34.563,0,0,0,0,0
2.772,-30.938,0,0,0,0,0
2.773,-27.375,0,0,0,0,0
2.774,-26.125,0,0,0,0,0
2.775,-24.875,0,0,0,0,0
2.776,-24.25,0,0,0,0,0
2.777,-23.625,0,0,0,0,0
2.778,-23,0,0,0,0,0
2.779,-22.375,0,0,0,0,0
2.78,-21.063,0,0,0,0,0
2.781,-19.688,0,0,0,0,0
2.782,-19.313,0,0,0,0,0
2.783,-18.938,0,0,0,0,0
2.784,-19.125,0,0,0,0,0
2.785,-19.375,0,0,0,0,0
2.786,-18.813,0,0,0,0,0
2.787,-18.125,0,0,0,0,0
2.788,-17.313,0,0,0,0,0
2.789,-16.438,0,0,0,0,0
2.79,-15,0,0,0,0,0
2.791,-13.438,0,0,0,0,0
2.792,-13.375,0,0,0,0,0
2.793,-13.313,0,0,0,0,0
2.794,-13.25,0,0,0,0,0
2.795,-13.125,0,0,0,0,0
2.796,-13.438,0,0,0,0,0
2.797,-13.75,0,0,0,0,0
2.798,-14.313,0,0,0,0,0
2.799,-14.875,0,0,0,0,0
2.8,-14.813,0,0,0,0,0
2.801,-14.688,0,0,0,0,0
2.802,-15.875,0,0,0,0,0
2.803,-17.063,0,0,0,0,0
2.804,-15.813,0,0,0,0,0
2.805,-14.563,0,0,0,0,0
2.806,-13.875,0,0,0,0,0
2.807,-13.125,0,0,0,0,0
2.808,-13.188,0,0,0,0,0
2.809,-13.313,0,0,0,0,0
2.81,-12.438,0,0,0,0,0
2.811,-11.563,0,0,0,0,0
2.812,-10.938,0,0,0,0,0
2.813,-10.313,0,0,0,0,0
2.814,-10.75,0,0,0,0,0
2.815,-11.25,0,0,0,0,0
2.816,-11.938,0,0,0,0,0
2.817,-12.688,0,0,0,0,0
2.818,-12.313,0,0,0,0,0
2.819,-11.875,0,0,0,0,0
2.82,-11.938,0,0,0,0,0
2.821,-11.875,0,0,0,0,0
2.822,-12,0,0,0,0,0
2.823,-12.188,0,0,0,0,0
2.824,-12.75,0,0,0,0,0
2.825,-13.313,0,0,0,0,0
2.826,-13.25,0,0,0,0,0
2.827,-13.125,0,0,0,0,0
2.828,-12.438,0,0,0,0,0
2.829,-11.75,0,0,0,0,0
2.83,-11.25,0,0,0,0,0
2.831,-10.813,0,0,0,0,0
2.832,-11.313,0,0,0,0,0
2.833,-11.875,0,0,0,0,0
2.834,-11.625,0,0,0,0,0
2.835,-11.25,0,0,0,0,0
2.836,-10.125,0,0,0,0,0
2.837,-8.9375,0,0,0,0,0
2.838,-8.875,0,0,0,0,0
2.839,-8.75,0,0,0,0,0
2.84,-8.625,0,0,0,0,0
2.841,-8.4375,0,0,0,0,0
2.842,-8.25,0,0,0,0,0
2.843,-8,0,0,0,0,0
2.844,-7.625,0,0,0,0,0
2.845,-7.1875,0,0,0,0,0
2.846,-6.8125,0,0,0,0,0
2.847,-6.4375,0,0,0,0,0
2.848,-6.5625,0,0,0,0,0
2.849,-6.75,0,0,0,0,0
2.85,-6.8125,0,0,0,0,0
2.851,-6.875,0,0,0,0,0
2.852,-5.5625,0,0,0,0,0
2.853,-4.25,0,0,0,0,0
2.854,-2.25,0,0,0,0,0
2.855,-0.1875,0,0,0,0,0
2.856,-0.6875,0,0,0,0,0
2.857,-1.25,0,0,0,0,0
2.858,-0.875,0,0,0,0,0
2.859,-0.5,0,0,0,0,0
2.86,0.875,0,0,0,0,0
2.861,2.1875,0,0,0,0,0
2.862,2.5625,0,0,0,0,0
2.863,2.9375,0,0,0,0,0
2.864,2.8125,0,0,0,0,0
2.865,2.625,0,0,0,0,0
2.866,2.3125,0,0,0,0,0
2.867,1.875,0,0,0,0,0
2.868,1.9375,0,0,0,0,0
2.869,2,0,0,1,0,0
2.87,1.875,0,0,0,0,0
2.871,1.6875,0,0,0,0,0
2.872,1.8125,0,0,0,0,0
2.873,2,0,0,0,0,0
2.874,1.9375,0,0,0,0,0
2.875,1.875,0,0,0,0,0
2.876,1.6875,0,0,0,0,0
2.877,1.375,0,0,0,0,0
2.878,1.5625,0,0,0,0,0
2.879,1.6875,0,0,0,0,0
2.88,1.75,0,0,0,0,0
2.881,1.6875,0,0,0,0,0
2.882,2.3125,0,0,0,0,0
2.883,2.9375,0,0,0,0,0
2.884,3.1875,0,0,0,0,0
2.885,3.4375,0,0,0,0,0
2.886,3.4375,0,0,0,0,0
2.887,3.4375,0,0,0,0,0
2.888,3.3125,0,0,0,0,0
2.889,3.25,0,0,0,0,0
2.89,3.125,0,0,0,0,0
2.891,2.9375,0,0,0,0,0
2.892,3,0,0,0,0,0
2.893,2.9375,0,0,0,0,0
2.894,2.625,0,0,0,0,0
2.895,2.3125,0,0,0,0,0
2.896,2.25,0,0,0,0,0
2.897,2.1875,0,0,0,0,0
2.898,1.5625,0,0,0,0,0
2.899,0.9375,0,0,0,0,0
2.9,1.0625,0,0,0,0,0
2.901,1.25,0,0,0,0,0
2.902,0.875,0,0,0,0,0
2.903,0.4375,0,0,0,0,0
2.904,0.5625,0,0,0,0,0
2.905,0.75,0,0,0,0,0
2.906,0.75,0,0,0,0,0
2.907,0.75,0,0,0,0,0
2.908,0.625,0,0,0,0,0
2.909,0.4375,0,0,0,0,0
2.91,0.4375,0,0,0,0,0
2.911,0.4375,0,0,0,0,0
2.912,0.625,0,0,0,0,0
2.913,0.9375,0,0,0,0,0
2.914,2.0625,0,0,0,0,0
2.915,3.25,0,0,0,0,0
2.916,3.8125,0,0,0,0,0
2.917,4.375,0,0,0,0,0
2.918,4.375,0,0,0,0,0
2.919,4.375,0,0,0,0,0
2.92,3.9375,0,0,0,0,0
2.921,3.4375,0,0,0,0,0
2.922,3.5,0,0,0,0,0
2.923,3.5625,0,0,0,0,0
2.924,4,0,0,0,0,0
2.925,4.5,0,0,0,0,0
2.926,5,0,0,0,0,0
2.927,5.625,0,0,0,0,0
2.928,5.3125,0,0,0,0,0
2.929,5,0,0,0,0,0
2.93,4.4375,0,0,0,0,0
2.931,3.875,0,0,0,0,0
2.932,3.875,0,0,0,0,0
2.933,3.875,0,0,0,0,0
2.934,3.5625,0,0,0,0,0
2.935,3.25,0,0,0,0,0
2.936,3,0,0,0,0,0
2.937,2.8125,0,0,0,0,0
2.938,2.625,0,0,0,0,0
2.939,2.3125,0,0,0,0,0
2.94,3.375,0,0,0,0,0
2.941,4.5,0,0,0,0,0
2.942,5.4375,0,0,0,0,0
2.943,6.375,0,0,0,0,0
2.944,5.625,0,0,0,0,0
2.945,4.8125,0,0,0,0,0
2.946,4.4375,0,0,0,0,0
2.947,4.0625,0,0,0,0,0
2.948,3.625,0,0,0,0,0
2.949,3.125,0,0,0,0,0
2.95,3,0,0,0,0,0
2.951,2.8125,0,0,0,0,0
2.952,2.8125,0,0,0,0,0
2.953,2.8125,0,0,0,0,0
2.954,3.375,0,0,0,0,0
2.955,4.0625,0,0,0,0,0
2.956,4,0,0,0,0,0
2.957,3.875,0,0,0,0,0
2.958,3,0,0,0,0,0
2.959,2,0,0,0,0,0
2.96,1.75,0,0,0,0,0
2.961,1.375,0,0,0,0,0
2.962,2.25,0,0,0,0,0
2.963,3.125,0,0,0,0,0
2.964,4,0,0,0,0,0
2.965,4.8125,0,0,0,0,0
2.966,5.125,0,0,0,0,0
2.967,5.4375,0,0,0,0,0
2.968,5.25,0,0,0,0,0
2.969,5,0,0,0,0,0
2.97,5.1875,0,0,0,0,0
2.971,5.4375,0,0,0,0,0
2.972,5.375,0,0,0,0,0
2.973,5.3125,0,0,0,0,0
2.974,5.5625,0,0,0,0,0
2.975,5.75,0,0,0,0,0
2.976,6,0,0,0,0,0
2.977,6.25,0,0,0,0,0
2.978,6.125,0,0,0,0,0
2.979,5.9375,0,0,0,0,0
2.98,5.875,0,0,0,0,0
2.981,5.75,0,0,0,0,0
2.982,5.4375,0,0,0,0,0
2.983,5.125,0,0,0,0,0
2.984,5,0,0,0,0,0
2.985,4.8125,0,0,0,0,0
2.986,5.125,0,0,0,0,0
2.987,5.4375,0,0,0,0,0
2.988,5.5625,0,0,0,0,0
2.989,5.75,0,0,0,0,0
2.99,5.4375,0,0,0,0,0
2.991,5.125,0,0,0,0,0
2.992,5.3125,0,0,0,0,0
2.993,5.4375,0,0,0,0,0
2.994,5.5,0,0,0,0,0
2.995,5.625,0,0,0,0,0
2.996,6.1875,0,0,0,0,0
2.997,6.6875,0,0,0,0,0
2.998,6.8125,0,0,0,0,0
2.999,7,0,0,0,0,0
3,7.125,0,0,0,0,0
3.001,7.1875,0,0,0,0,0
3.002,6.875,0,0,0,0,0
3.003,6.5625,0,0,0,0,0
3.004,6.6875,0,0,0,0,0
3.005,6.875,0,0,0,0,0
3.006,7.3125,0,0,0,0,0
3.007,7.8125,0,0,0,0,0
3.008,7.625,0,0,0,0,0
3.009,7.3125,0,0,0,0,0
3.01,7.4375,0,0,0,0,0
3.011,7.5,0,0,0,0,0
3.012,6.5,0,0,0,0,0
3.013,5.4375,0,0,0,0,0
3.014,5.4375,0,0,0,0,0
3.015,5.4375,0,0,0,0,0
3.016,7.125,0,0,0,0,0
3.017,8.875,0,0,0,0,0
3.018,8.75,0,0,0,0,0
3.019,8.5625,0,0,0,0,0
3.02,8.5,0,0,0,0,0
3.021,8.4375,0,0,0,0,0
3.022,9.125,0,0,0,0,0
3.023,9.8125,0,0,0,0,0
3.024,10,0,0,0,0,0
3.025,10.125,0,0,0,0,0
3.026,11.5,0,0,0,0,0
3.027,12.813,0,0,0,0,0
3.028,12.438,0,0,0,0,0
3.029,11.875,0,0,0,0,0
3.03,12,0,0,0,0,0
3.031,11.875,0,0,0,0,0
3.032,10.125,0,0,0,0,0
3.033,8.125,0,0,0,0,0
3.034,7.375,0,0,0,0,0
3.035,7.9375,0,0,0,0,0
3.036,8.1875,0,0,0,0,0
3.037,8.875,0,0,0,0,0
3.038,9.25,0,0,0,0,0
3.039,9.0625,0,0,0,1,0
3.04,9.5625,0,0,0,0,0
3.041,9.1875,0,0,0,0,0
3.042,8.75,0,0,0,0,0
3.043,8.875,0,0,0,0,0
3.044,9.5,0,0,0,0,0
3.045,9.375,0,0,0,0,0
3.046,10,0,0,0,0,0
3.047,9.8125,0,0,0,0,0
3.048,9.8125,0,0,0,0,0
3.049,10.625,0,0,0,0,0
3.05,10.313,0,0,0,0,0
3.051,10.125,0,0,0,0,0
3.052,9.375,0,0,0,0,0
3.053,9.0625,0,0,0,0,0
3.054,9.25,0,0,0,0,0
3.055,8.75,0,0,0,0,0
3.056,9.0625,0,0,0,0,0
3.057,8.875,0,0,0,0,0
3.058,9.125,0,0,0,0,0
3.059,9.1875,0,0,0,0,0
3.06,9.375,0,0,0,0,0
3.061,9.1875,0,0,0,0,0
3.062,8.6875,0,0,0,0,0
3.063,7.9375,0,0,0,0,0
3.064,8.5,0,0,0,0,0
3.065,8.4375,0,0,0,0,0
3.066,8.75,0,0,0,0,0
3.067,8.75,0,0,0,0,0
3.068,9.0625,0,0,0,0,0
3.069,8.75,0,0,0,0,0
3.07,9.0625,0,0,0,0,0
3.071,9.0625,0,0,0,0,0
3.072,7.75,0,0,0,0,0
3.073,7.3125,0,0,0,0,0
3.074,8.0625,0,0,0,0,0
3.075,7.9375,0,0,0,0,0
3.076,7.875,0,0,0,0,0
3.077,7.625,0,0,0,0,0
3.078,7.5625,0,0,0,0,0
3.079,7.5,0,0,0,0,0
3.08,6.4375,0,0,0,0,0
3.081,6.0625,0,0,0,0,0
3.082,6.0625,0,0,0,0,0
3.083,5.9375,0,0,0,0,0
3.084,6.9375,0,0,0,0,0
3.085,7.625,0,0,0,0,0
3.086,7.1875,0,0,0,0,0
3.087,6.875,0,0,0,0,0
3.088,6,0,0,0,0,0
3.089,5.125,0,0,0,0,0
3.09,4.9375,0,0,0,0,0
3.091,5.125,0,0,0,0,0
3.092,5,0,0,0,0,0
3.093,5.125,0,0,0,0,0
3.094,5.5625,0,0,0,0,0
3.095,5.3125,0,0,0,0,0
3.096,4.9375,0,0,0,0,0
3.097,5.3125,0,0,0,0,0
3.098,4.6875,0,0,0,0,0
3.099,4.5,0,0,0,0,0
3.1,5.0625,0,0,0,0,0
3.101,5,0,0,0,0,0
3.102,4.1875,0,0,0,0,0
3.103,4.1875,0,0,0,0,0
3.104,3.5,0,0,0,0,0
3.105,3.125,0,0,0,0,0
3.106,1.6875,0,0,0,0,0
3.107,0.75,0,0,0,0,0
3.108,1.5,0,0,0,0,0
3.109,1.25,0,0,0,0,0
3.11,2.1875,0,0,0,0,0
3.111,3.4375,0,0,0,0,0
3.112,3.4375,0,0,0,0,0
3.113,3.125,0,0,0,0,0
3.114,4.1875,0,0,0,0,0
3.115,5.3125,0,0,0,0,0
3.116,4.75,0,0,0,0,0
3.117,4.6875,0,0,0,0,0
3.118,4,0,0,0,0,0
3.119,4.375,0,0,0,0,0
3.12,4.0625,0,0,0,0,0
3.121,4.0625,0,0,0,0,0
3.122,3.9375,0,0,0,0,0
3.123,3.75,0,0,0,0,0
3.124,3.6875,0,0,0,0,0
3.125,3.5625,0,0,0,0,0
3.126,3.75,0,0,0,0,0
3.127,3.875,0,0,0,0,0
3.128,3.3125,0,0,0,0,0
3.129,3.4375,0,0,0,0,0
3.13,4.0625,0,0,0,0,0
3.131,4.0625,0,0,0,0,0
3.132,3.0625,0,0,0,0,0
3.133,2.1875,0,0,0,0,0
3.134,1.5625,0,0,0,0,1
3.135,1.0625,0,0,0,0,0
3.136,0.9375,0,0,0,0,0
3.137,0.9375,0,0,0,0,0
3.138,1.4375,0,0,0,0,0
3.139,1.25,0,0,0,0,0
3.14,0.9375,0,0,0,0,0
3.141,1.0625,0,0,0,0,0
3.142,1.25,0,0,0,0,0
3.143,1.5625,0,0,0,0,0
3.144,1.25,0,0,0,0,0
3.145,1.5625,0,0,0,0,0
3.146,2.0625,0,0,0,0,0
3.147,2.1875,0,0,0,0,0
3.148,2,0,0,0,0,0
3.149,1.875,0,0,0,0,0
3.15,1.125,0,0,0,0,0
3.151,0.625,0,0,0,0,0
3.152,0.75,0,0,0,0,0
3.153,0.125,0,0,0,0,0
3.154,0.5625,0,0,0,0,0
3.155,0.9375,0,0,0,0,0
3.156,1.4375,0,0,0,0,0
3.157,2.3125,0,0,0,0,0
3.158,2.375,0,0,0,0,0
3.159,1.875,0,0,0,0,0
3.16,2.5,0,0,0,0,0
3.161,2.3125,0,0,0,0,0
3.162,2.1875,0,0,0,0,0
3.163,2.1875,0,0,0,0,0
3.164,2.25,0,0,0,0,0
3.165,2.3125,0,0,0,0,0
3.166,2.5,0,0,0,0,0
3.167,1.5625,0,0,0,0,0
3.168,1.8125,0,0,0,0,0
3.169,1.5625,0,0,0,0,0
3.17,1.1875,0,0,0,0,0
3.171,1.875,0,0,0,0,0
3.172,2.1875,0,0,0,0,0
3.173,2.3125,0,0,0,0,0
3.174,2.4375,0,0,0,0,0
3.175,2.1875,0,0,0,0,0
3.176,2.375,0,0,0,0,0
3.177,2.625,0,0,0,0,0
3.178,3.3125,0,0,0,0,0
3.179,4.375,0,0,0,0,0
3.18,4.0625,0,0,0,0,0
3.181,3.4375,0,0,0,0,0
3.182,3.1875,0,0,0,0,0
3.183,3.125,0,0,0,0,0
3.184,3.5,0,0,0,0,0
3.185,3.75,0,0,0,0,0
3.186,3.3125,0,0,0,0,0
3.187,2.3125,0,0,0,0,0
3.188,3.125,0,0,0,0,0
3.189,3.25,0,0,0,0,0
3.19,2.625,0,0,0,0,0
3.191,2,0,0,0,0,0
3.192,2.1875,0,0,0,0,0
3.193,2,0,0,0,0,0
3.194,2.1875,0,0,0,0,0
3.195,2.625,0,0,0,0,0
3.196,2.125,0,0,0,0,0
3.197,2.3125,0,0,0,0,0
3.198,2.5625,0,0,0,0,0
3.199,2.8125,0,0,0,0,0
3.2,2.5625,0,0,0,0,0
3.201,2.5,0,0,0,0,0
3.202,2.25,0,0,0,0,0
3.203,2.5,0,0,0,0,0
3.204,2.125,0,0,0,0,0
3.205,2.3125,0,0,0,0,0
3.206,2.5,0,0,0,0,0
3.207,2,0,0,0,0,0
3.208,2.125,0,0,0,0,0
3.209,2.5,0,0,0,0,0
3.21,2.25,0,0,0,0,0
3.211,2.5,0,0,0,0,0
3.212,2.8125,0,0,0,0,0
3.213,2.8125,0,0,0,0,0
3.214,2.375,0,0,0,0,0
3.215,1.6875,0,0,0,0,0
3.216,1.0625,0,0,0,0,0
3.217,1.25,0,0,0,0,0
3.218,2.25,0,0,0,0,0
3.219,3.4375,0,0,0,0,0
3.22,4,0,0,0,0,0
3.221,4.6875,0,0,0,0,0
3.222,5.0625,0,0,0,0,0
3.223,5.3125,0,0,0,0,0
3.224,5.125,0,0,0,0,0
3.225,4.6875,0,0,0,0,0
3.226,4.6875,0,0,0,0,0
3.227,4.375,0,0,0,0,0
3.228,4.0625,0,0,0,0,0
3.229,3.125,0,0,0,0,0
3.23,2.9375,0,0,0,0,0
3.231,2.625,0,0,0,0,0
3.232,2.625,0,0,0,0,0
3.233,2.8125,0,0,0,0,0
3.234,3.875,0,0,0,0,0
3.235,3.875,0,0,0,0,0
3.236,4.25,0,0,0,0,0
3.237,4.6875,0,0,0,0,0
3.238,4.4375,0,0,0,0,0
3.239,3.5625,0,0,0,0,0
3.24,3.0625,0,0,0,0,0
3.241,2.625,0,0,0,0,0
3.242,2,0,0,0,0,0
3.243,2.3125,0,0,0,0,0
3.244,2.625,0,0,0,0,0
3.245,2.3125,0,0,0,0,0
3.246,3.0625,0,0,0,0,0
3.247,3.125,0,0,0,0,0
3.248,3.875,0,0,0,0,0
3.249,4.375,0,0,0,0,0
3.25,4.25,0,0,0,0,0
3.251,4.375,0,0,0,0,0
3.252,4,0,0,0,0,0
3.253,3.5625,0,0,0,0,0
3.254,3.375,0,0,0,0,0
3.255,3.5625,0,0,0,0,0
3.256,3.0625,0,0,0,0,0
3.257,2.625,0,0,0,0,0
3.258,2.75,0,0,0,0,0
3.259,2.5,0,0,0,0,0
3.26,2.5,0,0,0,0,0
3.261,2.3125,0,0,0,0,0
3.262,2.4375,0,0,0,0,0
3.263,2.5,0,0,0,0,0
3.264,1.875,0,0,0,0,0
3.265,2,0,0,0,0,0
3.266,2.375,0,0,0,0,0
3.267,2.3125,0,0,0,0,0
3.268,4.1875,0,0,0,0,0
3.269,6.0625,0,0,0,0,0
3.27,5.3125,0,0,0,0,0
3.271,4.8125,0,0,0,0,0
3.272,4.9375,0,0,0,0,0
3.273,4.5,0,0,0,0,0
3.274,4.6875,0,0,0,0,0
3.275,4.1875,0,0,0,0,0
3.276,5,0,0,0,0,0
3.277,5.125,0,0,0,0,0
3.278,4.9375,0,0,0,0,0
3.279,4.6875,0,0,0,0,0
3.28,3.75,0,0,0,0,0
3.281,2.3125,0,0,0,0,0
3.282,1.75,0,0,0,0,0
3.283,1.0625,0,0,0,0,0
3.284,1.9375,0,0,0,0,0
3.285,1.875,0,0,0,0,0
3.286,2.875,0,0,0,0,0
3.287,2.9375,0,0,0,0,0
3.288,4.125,0,0,0,0,0
3.289,3.5625,0,0,0,0,0
3.29,3.625,0,0,0,0,0
3.291,3.875,0,0,0,0,0
3.292,3.5,0,0,0,0,0
3.293,3.4375,0,0,0,0,0
3.294,3.625,0,0,0,0,0
3.295,3.875,0,0,0,0,0
3.296,3.875,0,0,0,0,0
3.297,3.4375,0,0,0,0,0
3.298,2.875,0,0,0,0,0
3.299,2.8125,0,0,0,0,0
3.3,2.8125,0,0,0,0,0
3.301,3.4375,0,0,0,0,0
3.302,3.375,0,0,0,0,0
3.303,4.0625,0,0,0,0,0
3.304,3.6875,0,0,0,0,0
3.305,3.25,0,0,0,0,0
3.306,3.1875,0,0,0,0,0
3.307,2.8125,0,0,0,0,0
3.308,3.1875,0,0,0,0,0
3.309,3.5625,0,0,0,0,0
3.31,3,0,0,0,0,0
3.311,3.4375,0,0,0,0,0
3.312,4.3125,0,0,0,0,0
3.313,6.0625,0,0,0,0,0
3.314,5.375,0,0,0,0,0
3.315,4.6875,0,0,0,0,0
3.316,4.375,0,0,0,0,0
3.317,3.75,0,0,0,0,0
3.318,4.75,0,0,0,0,0
3.319,3.875,0,0,0,0,0
3.32,3,0,0,0,0,0
3.321,2.5,0,0,0,0,0
3.322,3.5,0,0,0,0,0
3.323,3.125,0,0,0,0,0
3.324,2.8125,0,0,0,0,0
3.325,2.625,0,0,0,0,0
3.326,2.875,0,0,0,0,0
3.327,3.4375,0,0,0,0,0
3.328,3.3125,0,0,0,0,0
3.329,3.4375,0,0,0,0,0
3.33,3.5625,0,0,0,0,0
3.331,3.5625,0,0,0,0,0
3.332,4,0,0,0,0,0
3.333,3.875,0,0,0,0,0
3.334,4.25,0,0,0,0,0
3.335,4.0625,0,0,0,0,0
3.336,4.4375,0,0,0,0,0
3.337,5.625,0,0,0,0,0
3.338,5.6875,0,0,0,0,0
3.339,6.0625,0,0,0,0,0
3.34,6.125,0,0,0,0,0
3.341,6.375,0,0,0,0,0
3.342,6.375,0,0,0,0,0
3.343,6.375,0,0,0,0,0
3.344,6.3125,0,0,0,0,0
3.345,6.25,0,0,0,0,0
3.346,5.625,0,0,0,0,0
3.347,6.25,0,0,0,0,0
3.348,5.875,0,0,0,0,0
3.349,6.0625,0,0,0,0,0
3.35,6.1875,0,0,0,0,0
3.351,5.75,0,0,0,0,0
3.352,4.8125,0,0,0,0,0
3.353,5,0,0,0,0,0
3.354,5,0,0,0,0,0
3.355,4.375,0,0,0,0,0
3.356,4.125,0,0,0,0,0
3.357,4.375,0,0,0,0,0
3.358,4.1875,0,0,0,0,0
3.359,4.5,0,0,0,0,0
3.36,5.625,0,0,0,0,0
3.361,6.6875,0,0,0,0,0
3.362,6.75,0,0,0,0,0
3.363,6.6875,0,0,0,0,0
3.364,6.0625,0,0,0,0,0
3.365,5.625,0,0,0,0,0
3.366,6.5625,0,0,0,0,0
3.367,6.6875,0,0,0,0,0
3.368,7,0,0,0,0,0
3.369,7,0,0,0,0,0
3.37,7.9375,0,0,0,0,0
3.371,8.25,0,0,0,0,0
3.372,8.6875,0,0,0,0,0
3.373,8.5625,0,0,0,0,0
3.374,9.125,0,0,0,0,0
3.375,9.8125,0,0,0,0,0
3.376,9.125,0,0,0,0,0
3.377,8.875,0,0,0,0,0
3.378,7.9375,0,0,0,0,0
3.379,6.6875,0,0,0,0,0
3.38,6.4375,0,0,0,0,0
3.381,6.6875,0,0,0,0,0
3.382,7.3125,0,0,0,0,0
3.383,7,0,0,0,0,0
3.384,7.4375,0,0,0,0,0
3.385,7.3125,0,0,0,0,0
3.386,7.3125,0,0,0,0,0
3.387,7.1875,0,0,0,0,0
3.388,6.6875,0,0,0,0,0
3.389,6.25,0,0,0,0,0
3.39,6.875,0,0,0,0,0
3.391,6.25,0,0,0,0,0
3.392,4.9375,0,0,0,0,0
3.393,3.875,0,0,0,0,0
3.394,2.4375,0,0,0,0,0
3.395,1.5625,0,0,0,0,0
3.396,2.875,0,0,0,0,0
3.397,3.875,0,0,0,0,0
3.398,4.5,0,0,0,0,0
3.399,5.3125,0,0,0,0,0
3.4,4.8125,0,0,0,0,0
3.401,4.8125,0,0,0,0,0
3.402,3.875,0,0,0,0,0
3.403,3.25,0,0,0,0,0
3.404,3.5625,0,0,0,0,0
3.405,3.25,0,0,0,0,0
3.406,3.5,0,0,0,0,0
3.407,3.75,0,0,0,0,0
3.408,3.25,0,0,0,0,0
3.409,2.8125,0,0,0,0,0
3.41,3.25,0,0,0,0,0
3.411,3.4375,0,0,0,0,0
3.412,3,0,0,0,0,0
3.413,2.5,0,0,0,0,0
3.414,3.375,0,0,0,0,0
3.415,3.75,0,0,0,0,0
3.416,2.5625,0,0,0,0,0
3.417,2,0,0,0,0,0
3.418,1.6875,0,0,0,0,0
3.419,1.5625,0,0,0,0,0
3.42,1.8125,0,0,0,0,0
3.421,2,0,0,0,0,0
3.422,2.3125,0,0,0,0,0
3.423,2.3125,0,0,0,0,0
3.424,2.125,0,0,0,0,0
3.425,2,0,0,0,0,0
3.426,2.5,0,0,0,0,0
3.427,2.1875,0,0,0,0,0
3.428,2.5625,0,0,0,0,0
3.429,2.625,0,0,0,0,0
3.43,2.375,0,0,0,0,0
3.431,2.1875,0,0,0,0,0
3.432,2.375,0,0,0,0,0
3.433,2.3125,0,0,0,0,0
3.434,2.6875,0,0,0,0,0
3.435,2,0,0,0,0,0
3.436,1.9375,0,0,0,0,0
3.437,1.6875,0,0,0,0,0
3.438,0.875,0,0,0,0,0
3.439,1.0625,0,0,0,0,0
3.44,1.5625,0,0,0,0,0
3.441,2,0,0,0,0,0
3.442,1.875,0,0,0,0,0
3.443,1.875,0,0,0,0,0
3.444,2.0625,0,0,0,0,0
3.445,2.625,0,0,0,0,0
3.446,2.375,0,0,0,0,0
3.447,3.25,0,0,0,0,0
3.448,2.625,0,0,0,0,0
3.449,2.8125,0,0,0,0,0
3.45,2.75,0,0,0,0,0
3.451,2.8125,0,0,0,0,0
3.452,2.25,0,0,0,0,0
3.453,1.6875,0,0,0,0,0
3.454,1.5625,0,0,0,0,0
3.455,1.6875,0,0,0,0,0
3.456,1.8125,0,0,0,0,0
3.457,2,0,0,0,0,0
3.458,2.5625,0,0,0,0,0
3.459,2.3125,0,0,0,0,0
3.46,2.0625,0,0,0,0,0
3.461,1.6875,0,0,0,0,0
3.462,2.4375,0,0,0,0,0
3.463,3.4375,0,0,0,0,0
3.464,2.9375,0,0,0,0,0
3.465,3.25,0,0,0,0,0
3.466,3.75,0,0,0,0,0
3.467,3.25,0,0,0,0,0
3.468,2.625,0,0,0,0,0
3.469,2,0,0,0,0,0
3.47,2.75,0,0,0,0,0
3.471,2.8125,0,0,0,0,0
3.472,1.8125,0,0,0,0,0
3.473,1.6875,0,0,0,0,0
3.474,1.9375,0,0,0,0,0
3.475,2.3125,0,0,0,0,0
3.476,1.4375,0,0,0,0,0
3.477,2,0,0,0,0,0
3.478,2,0,0,0,0,0
3.479,2.5,0,0,0,0,0
3.48,2.1875,0,0,0,0,0
3.481,1.875,0,0,0,0,0
3.482,1.875,0,0,0,0,0
3.483,1.375,1,0,0,0,0
3.484,2.125,0,0,0,0,0
3.485,1.875,0,0,0,0,0
3.486,1.25,0,0,0,0,0
3.487,0.125,0,0,0,0,0
3.488,0.875,0,0,0,0,0
3.489,1.5625,0,0,0,0,0
3.49,2.4375,0,0,0,0,0
3.491,3.25,0,0,0,0,0
3.492,2.8125,0,0,0,0,0
3.493,2.3125,0,0,0,0,0
3.494,2.3125,0,0,0,0,0
3.495,2,0,0,0,0,0
3.496,1.5,0,0,0,0,0
3.497,2.625,0,0,0,0,0
3.498,3.875,0,0,0,0,0
3.499,5.625,0,0,0,0,0
3.5,5.6875,0,0,0,0,0
3.501,6.0625,0,0,0,0,0
3.502,6.875,0,0,0,0,0
3.503,6.6875,0,0,0,0,0
3.504,7.375,0,0,0,0,0
3.505,8.125,0,0,0,0,0
3.506,9.3125,0,0,0,0,0
3.507,10,0,0,0,0,0
3.508,11,0,0,0,0,0
3.509,12,0,0,0,0,0
3.51,14.375,0,0,0,0,0
3.511,16.688,0,0,0,0,0
3.512,18.313,0,0,0,0,0
3.513,20.125,0,0,0,0,0
3.514,21.5,0,0,0,0,0
3.515,23.25,0,0,0,0,0
3.516,24.688,0,0,0,0,0
3.517,26.25,0,0,0,0,0
3.518,28.75,0,0,0,0,0
3.519,30.75,0,0,0,0,0
3.52,32.813,0,0,0,0,0
3.521,35.125,0,0,0,0,0
3.522,35.625,0,0,0,0,0
3.523,35.75,0,0,0,0,0
3.524,36.313,0,0,0,0,0
3.525,37.625,0,1,0,0,0
3.526,38.875,0,0,0,0,0
3.527,39.063,0,0,0,0,0
3.528,38.313,0,0,0,0,0
3.529,36.688,0,0,0,0,0
3.53,34.438,0,0,0,0,0
3.531,31.375,0,0,0,0,0
3.532,29.125,0,0,0,0,0
3.533,26.375,0,0,0,0,0
3.534,23,0,0,0,0,0
3.535,18.125,0,0,0,0,0
3.536,12.813,0,0,0,0,0
3.537,7.9375,0,0,0,0,0
3.538,4.8125,0,0,0,0,0
3.539,1.5625,0,0,0,0,0
3.54,-2.5625,0,0,0,0,0
3.541,-6.25,0,0,0,0,0
3.542,-9.6875,0,0,0,0,0
3.543,-13.938,0,0,0,0,0
3.544,-17.625,0,0,0,0,0
3.545,-21.25,0,0,0,0,0
3.546,-23.938,0,0,0,0,0
3.547,-26.75,0,0,0,0,0
3.548,-29.25,0,0,0,0,0
3.549,-31.438,0,0,0,0,0
3.55,-32.313,0,0,0,0,0
3.551,-32.813,0,0,0,0,0
3.552,-33.75,0,0,0,0,0
3.553,-33.625,0,0,0,0,0
3.554,-34.375,0,0,0,0,0
3.555,-34.375,0,0,0,0,0
3.556,-33.125,0,0,0,0,0
3.557,-32.375,0,0,0,0,0
3.558,-29.625,0,0,0,0,0
3.559,-27.063,0,0,0,0,0
3.56,-25.125,0,0,0,0,0
3.561,-23.938,0,0,0,0,0
3.562,-22.938,0,0,0,0,0
3.563,-21.438,0,0,0,0,0
3.564,-20.875,0,0,0,0,0
3.565,-20.188,0,0,0,0,0
3.566,-19.313,0,0,0,0,0
3.567,-18.625,0,0,0,0,0
3.568,-17.875,0,0,0,0,0
3.569,-17.188,0,0,0,0,0
3.57,-17.125,0,0,0,0,0
3.571,-17.375,0,0,0,0,0
3.572,-17.438,0,0,0,0,0
3.573,-17.5,0,0,0,0,0
3.574,-17.813,0,0,0,0,0
3.575,-17.375,0,0,0,0,0
3.576,-15.438,0,0,0,0,0
3.577,-14.25,0,0,0,0,0
3.578,-13.188,0,0,0,0,0
3.579,-11.875,0,0,0,0,0
3.58,-11.813,0,0,0,0,0
3.581,-12.188,0,0,0,0,0
3.582,-12.875,0,0,0,0,0
3.583,-13.938,0,0,0,0,0
3.584,-13.438,0,0,0,0,0
3.585,-13.125,0,0,0,0,0
3.586,-12.438,0,0,0,0,0
3.587,-12.375,0,0,0,0,0
3.588,-12.5,0,0,0,0,0
3.589,-12.375,0,0,0,0,0
3.59,-11,0,0,0,0,0
3.591,-9.875,0,0,0,0,0
3.592,-10.5,0,0,0,0,0
3.593,-10.313,0,0,0,0,0
3.594,-10.063,0,0,0,0,0
3.595,-10.188,0,0,0,0,0
3.596,-10.125,0,0,0,0,0
3.597,-10.938,0,0,0,0,0
3.598,-11.125,0,0,0,0,0
3.599,-11.563,0,0,0,0,0
3.6,-11.563,0,0,0,0,0
3.601,-11.125,0,0,0,0,0
3.602,-11.5,0,0,0,0,0
3.603,-11.75,0,0,0,0,0
3.604,-12.5,0,0,0,0,0
3.605,-12.813,0,0,0,0,0
3.606,-12.438,0,0,0,0,0
3.607,-12.375,0,0,0,0,0
3.608,-11,0,0,0,0,0
3.609,-9.6875,0,0,0,0,0
3.61,-9.5,0,0,0,0,0
3.611,-9.25,0,0,0,0,0
3.612,-9.8125,0,0,0,0,0
3.613,-10.188,0,0,0,0,0
3.614,-10.375,0,0,0,0,0
3.615,-10.938,0,0,0,0,0
3.616,-10.313,0,0,0,0,0
3.617,-9.5625,0,0,0,0,0
3.618,-9.5,0,0,0,0,0
3.619,-10,0,0,0,0,0
3.62,-10.063,0,0,0,0,0
3.621,-10.188,0,0,0,0,0
3.622,-9.3125,0,0,0,0,0
3.623,-8.75,0,0,0,0,0
3.624,-8,0,0,0,0,0
3.625,-7.0625,0,0,0,0,0
3.626,-7.875,0,0,0,0,0
3.627,-7.5,0,0,0,0,0
3.628,-6.6875,0,0,0,0,0
3.629,-6.125,0,0,0,0,0
3.63,-5.375,0,0,0,0,0
3.631,-4.6875,0,0,0,0,0
3.632,-3.8125,0,0,0,0,0
3.633,-3,0,0,0,0,0
3.634,-3.4375,0,0,0,0,0
3.635,-3.4375,0,0,0,0,0
3.636,-3.1875,0,0,0,0,0
3.637,-3,0,0,0,0,0
3.638,-2.5,0,0,0,0,0
3.639,-2.1875,0,0,0,0,0
3.64,-1.5625,0,0,0,0,0
3.641,-0.3125,0,0,0,0,0
3.642,0.125,0,0,0,0,0
3.643,0.3125,0,0,0,0,0
3.644,0.125,0,0,0,0,0
3.645,0.125,0,0,0,0,0
3.646,0.125,0,0,0,0,0
3.647,0.4375,0,0,0,0,0
3.648,0.875,0,0,0,0,0
3.649,1.6875,0,0,0,0,0
3.65,1.5,0,0,0,0,0
3.651,1.375,0,0,0,0,0
3.652,1.1875,0,0,0,0,0
3.653,0.125,0,0,0,0,0
3.654,0.8125,0,0,0,0,0
3.655,0.9375,0,0,0,0,0
3.656,1.375,0,0,0,0,0
3.657,0.9375,0,0,0,0,0
3.658,1.0625,0,0,0,0,0
3.659,1.0625,0,0,0,0,0
3.66,1.5625,0,0,0,0,0
3.661,2.8125,0,0,0,0,0
3.662,3,0,0,0,0,0
3.663,2,0,0,0,0,0
3.664,2.0625,0,0,0,0,0
3.665,2.625,0,0,0,0,0
3.666,2.4375,0,0,0,0,0
3.667,2.8125,0,0,0,0,0
3.668,2.4375,0,0,0,0,0
3.669,2.3125,0,0,0,0,0
3.67,2.0625,0,0,0,0,0
3.671,1.0625,0,0,0,0,0
3.672,1.8125,0,0,0,0,0
3.673,2.8125,0,0,1,0,0
3.674,3.1875,0,0,0,0,0
3.675,3.875,0,0,0,0,0
3.676,3.875,0,0,0,0,0
3.677,3.75,0,0,0,0,0
3.678,3.8125,0,0,0,0,0
3.679,2.625,0,0,0,0,0
3.68,2.75,0,0,0,0,0
3.681,2.9375,0,0,0,0,0
3.682,3.3125,0,0,0,0,0
3.683,3.25,0,0,0,0,0
3.684,3.3125,0,0,0,0,0
3.685,3.25,0,0,0,0,0
3.686,3.9375,0,0,0,0,0
3.687,3.5625,0,0,0,0,0
3.688,3.75,0,0,0,0,0
3.689,4.0625,0,0,0,0,0
3.69,4.1875,0,0,0,0,0
3.691,4.375,0,0,0,0,0
3.692,4.125,0,0,0,0,0
3.693,4.375,0,0,0,0,0
3.694,4.1875,0,0,0,0,0
3.695,4.375,0,0,0,0,0
3.696,4.6875,0,0,0,0,0
3.697,5,0,0,0,0,0
3.698,4.9375,0,0,0,0,0
3.699,4.1875,0,0,0,0,0
3.7,3.5625,0,0,0,0,0
3.701,3.4375,0,0,0,0,0
3.702,3.4375,0,0,0,0,0
3.703,4.0625,0,0,0,0,0
3.704,3.3125,0,0,0,0,0
3.705,2.1875,0,0,0,0,0
3.706,2.9375,0,0,0,0,0
3.707,2.8125,0,0,0,0,0
3.708,2.3125,0,0,0,0,0
3.709,2.1875,0,0,0,0,0
3.71,3.0625,0,0,0,0,0
3.711,4.375,0,0,0,0,0
3.712,4.1875,0,0,0,0,0
3.713,5,0,0,0,0,0
3.714,5.0625,0,0,0,0,0
3.715,5.4375,0,0,0,0,0
3.716,5.1875,0,0,0,0,0
3.717,4.5,0,0,0,0,0
3.718,4.5,0,0,0,0,0
3.719,4.0625,0,0,0,0,0
3.72,4,0,0,0,0,0
3.721,3.4375,0,0,0,0,0
3.722,3.5625,0,0,0,0,0
3.723,4.0625,0,0,0,0,0
3.724,3.5625,0,0,0,0,0
3.725,3.4375,0,0,0,0,0
3.726,3.3125,0,0,0,0,0
3.727,3.4375,0,0,0,0,0
3.728,3.0625,0,0,0,0,0
3.729,2.8125,0,0,0,0,0
3.73,3.125,0,0,0,0,0
3.731,3.5625,0,0,0,0,0
3.732,3.75,0,0,0,0,0
3.733,3.875,0,0,0,0,0
3.734,3.875,0,0,0,0,0
3.735,3.4375,0,0,0,0,0
3.736,3.5,0,0,0,0,0
3.737,3.125,0,0,0,0,0
3.738,4.6875,0,0,0,0,0
3.739,6.6875,0,0,0,0,0
3.74,7.3125,0,0,0,0,0
3.741,7,0,0,0,0,0
3.742,6.75,0,0,0,0,0
3.743,5.625,0,0,0,0,0
3.744,4.75,0,0,0,0,0
3.745,3.5625,0,0,0,0,0
3.746,3.25,0,0,0,0,0
3.747,2.9375,0,0,0,0,0
3.748,3.9375,0,0,0,0,0
3.749,4.375,0,0,0,0,0
3.75,5.0625,0,0,0,0,0
3.751,4.8125,0,0,0,0,0
3.752,4.6875,0,0,0,0,0
3.753,4.5,0,0,0,0,0
3.754,4.1875,0,0,0,0,0
3.755,4.0625,0,0,0,0,0
3.756,4.3125,0,0,0,0,0
3.757,4.0625,0,0,0,0,0
3.758,4.3125,0,0,0,0,0
3.759,5,0,0,0,0,0
3.76,6.375,0,0,0,0,0
3.761,7.625,0,0,0,0,0
3.762,7.75,0,0,0,0,0
3.763,8.125,0,0,0,0,0
3.764,7,0,0,0,0,0
3.765,6.375,0,0,0,0,0
3.766,6.0625,0,0,0,0,0
3.767,6.0625,0,0,0,0,0
3.768,5.6875,0,0,0,0,0
3.769,5.625,0,0,0,0,0
3.77,5.5,0,0,0,0,0
3.771,5.4375,0,0,0,0,0
3.772,5.5625,0,0,0,0,0
3.773,5.9375,0,0,0,0,0
3.774,6.5,0,0,0,0,0
3.775,6.6875,0,0,0,0,0
3.776,6.375,0,0,0,0,0
3.777,6.25,0,0,0,0,0
3.778,6.0625,0,0,0,0,0
3.779,5.9375,0,0,0,0,0
3.78,6.125,0,0,0,0,0
3.781,7.8125,0,0,0,0,0
3.782,7.6875,0,0,0,0,0
3.783,7.8125,0,0,0,0,0
3.784,7.3125,0,0,0,0,0
3.785,7,0,0,0,0,0
3.786,5.4375,0,0,0,0,0
3.787,5.125,0,0,0,0,0
3.788,4.875,0,0,0,0,0
3.789,5.3125,0,0,0,0,0
3.79,6.9375,0,0,0,0,0
3.791,7.8125,0,0,0,0,0
3.792,8.0625,0,0,0,0,0
3.793,8.125,0,0,0,0,0
3.794,8.0625,0,0,0,0,0
3.795,8.125,0,0,0,0,0
3.796,7.5,0,0,0,0,0
3.797,7.1875,0,0,0,0,0
3.798,7.875,0,0,0,0,0
3.799,8.5625,0,0,0,0,0
3.8,8.5625,0,0,0,0,0
3.801,8.75,0,0,0,0,0
3.802,8.5625,0,0,0,0,0
3.803,8.5625,0,0,0,0,0
3.804,8.9375,0,0,0,0,0
3.805,8.875,0,0,0,0,0
3.806,8.3125,0,0,0,0,0
3.807,8.5625,0,0,0,0,0
3.808,8.25,0,0,0,0,0
3.809,8.4375,0,0,0,0,0
3.81,8.5,0,0,0,0,0
3.811,9.0625,0,0,0,0,0
3.812,9.25,0,0,0,0,0
3.813,9.0625,0,0,0,0,0
3.814,9.3125,0,0,0,0,0
3.815,9.0625,0,0,0,0,0
3.816,9.25,0,0,0,0,0
3.817,8.75,0,0,0,0,0
3.818,8.25,0,0,0,0,0
3.819,8.4375,0,0,0,0,0
3.82,8.5625,0,0,0,0,0
3.821,7.9375,0,0,0,0,0
3.822,7.75,0,0,0,0,0
3.823,7.8125,0,0,0,0,0
3.824,8.6875,0,0,0,0,0
3.825,9.0625,0,0,0,0,0
3.826,9.375,0,0,0,0,0
3.827,9.5,0,0,0,0,0
3.828,9.5,0,0,0,0,0
3.829,9.8125,0,0,0,0,0
3.83,9.9375,0,0,0,0,0
3.831,10,0,0,0,0,0
3.832,10.438,0,0,0,0,0
3.833,10.313,0,0,0,0,0
3.834,9.8125,0,0,0,0,0
3.835,9.1875,0,0,0,0,0
3.836,9.9375,0,0,0,0,0
3.837,9.6875,0,0,0,1,0
3.838,10.313,0,0,0,0,0
3.839,10.125,0,0,0,0,0
3.84,9.375,0,0,0,0,0
3.841,9.0625,0,0,0,0,0
3.842,9.5625,0,0,0,0,0
3.843,9.5,0,0,0,0,0
3.844,9.0625,0,0,0,0,0
3.845,9.375,0,0,0,0,0
3.846,9.1875,0,0,0,0,0
3.847,9.375,0,0,0,0,0
3.848,8.5,0,0,0,0,0
3.849,7.1875,0,0,0,0,0
3.85,7.1875,0,0,0,0,0
3.851,6.875,0,0,0,0,0
3.852,6.8125,0,0,0,0,0
3.853,7,0,0,0,0,0
3.854,7.5,0,0,0,0,0
3.855,7.625,0,0,0,0,0
3.856,6.6875,0,0,0,0,0
3.857,6.875,0,0,0,0,0
3.858,7.625,0,0,0,0,0
3.859,8.4375,0,0,0,0,0
3.86,7.875,0,0,0,0,0
3.861,7.5,0,0,0,0,0
3.862,6.5625,0,0,0,0,0
3.863,7,0,0,0,0,0
3.864,7.1875,0,0,0,0,0
3.865,7.3125,0,0,0,0,0
3.866,6.9375,0,0,0,0,0
3.867,7,0,0,0,0,0
3.868,5.9375,0,0,0,0,0
3.869,5.625,0,0,0,0,0
3.87,6.9375,0,0,0,0,0
3.871,8.125,0,0,0,0,0
3.872,7.5,0,0,0,0,0
3.873,6.875,0,0,0,0,0
3.874,6.4375,0,0,0,0,0
3.875,6.5625,0,0,0,0,0
3.876,5.5,0,0,0,0,0
3.877,4.8125,0,0,0,0,0
3.878,3.4375,0,0,0,0,0
3.879,3.5625,0,0,0,0,0
3.88,4.1875,0,0,0,0,0
3.881,4.375,0,0,0,0,0
3.882,4.6875,0,0,0,0,0
3.883,4.6875,0,0,0,0,0
3.884,4.3125,0,0,0,0,0
3.885,4.6875,0,0,0,0,0
3.886,4.0625,0,0,0,0,0
3.887,3.25,0,0,0,0,0
3.888,3.25,0,0,0,0,0
3.889,2.9375,0,0,0,0,0
3.89,2.8125,0,0,0,0,0
3.891,2,0,0,0,0,0
3.892,2.625,0,0,0,0,0
3.893,2.5,0,0,0,0,0
3.894,3.25,0,0,0,0,0
3.895,4.6875,0,0,0,0,0
3.896,5.125,0,0,0,0,0
3.897,5.75,0,0,0,0,0
3.898,5.375,0,0,0,0,0
3.899,5.3125,0,0,0,0,0
3.9,3.6875,0,0,0,0,0
3.901,3.4375,0,0,0,0,0
3.902,2.4375,0,0,0,0,0
3.903,1.25,0,0,0,0,0
3.904,0.75,0,0,0,0,0
3.905,-0.5,0,0,0,0,0
3.906,0.5,0,0,0,0,0
3.907,1.0625,0,0,0,0,0
3.908,1.5,0,0,0,0,0
3.909,2.5,0,0,0,0,0
3.91,2.0625,0,0,0,0,0
3.911,2.625,0,0,0,0,0
3.912,2.25,0,0,0,0,0
3.913,2,0,0,0,0,0
3.914,1.75,0,0,0,0,0
3.915,1.375,0,0,0,0,0
3.916,1.9375,0,0,0,0,0
3.917,1.875,0,0,0,0,0
3.918,1.9375,0,0,0,0,0
3.919,2.3125,0,0,0,0,0
3.92,1.875,0,0,0,0,0
3.921,1.6875,0,0,0,0,0
3.922,0.625,0,0,0,0,0
3.923,0,0,0,0,0,0
3.924,0.9375,0,0,0,0,0
3.925,1.0625,0,0,0,0,0
3.926,1.5625,0,0,0,0,0
3.927,1.5625,0,0,0,0,1
3.928,1.4375,0,0,0,0,0
3.929,1.375,0,0,0,0,0
3.93,1.3125,0,0,0,0,0
3.931,1.25,0,0,0,0,0
3.932,1.375,0,0,0,0,0
3.933,1.5625,0,0,0,0,0
3.934,1.8125,0,0,0,0,0
3.935,1.5625,0,0,0,0,0
3.936,0.625,0,0,0,0,0
3.937,0,0,0,0,0,0
3.938,0.4375,0,0,0,0,0
3.939,0.75,0,0,0,0,0
3.94,0.5,0,0,0,0,0
3.941,0.3125,0,0,0,0,0
3.942,1.125,0,0,0,0,0
3.943,1.0625,0,0,0,0,0
3.944,0.25,0,0,0,0,0
3.945,0.4375,0,0,0,0,0
3.946,0.375,0,0,0,0,0
3.947,0.125,0,0,0,0,0
3.948,0.625,0,0,0,0,0
3.949,0.4375,0,0,0,0,0
3.95,0.9375,0,0,0,0,0
3.951,0.9375,0,0,0,0,0
3.952,1.375,0,0,0,0,0
3.953,1.6875,0,0,0,0,0
3.954,1.1875,0,0,0,0,0
3.955,0.9375,0,0,0,0,0
3.956,1.375,0,0,0,0,0
3.957,0.75,0,0,0,0,0
3.958,-0.3125,0,0,0,0,0
3.959,-0.3125,0,0,0,0,0
3.96,-0.0625,0,0,0,0,0
3.961,0.3125,0,0,0,0,0
3.962,0.9375,0,0,0,0,0
3.963,1.375,0,0,0,0,0
3.964,1.6875,0,0,0,0,0
3.965,1.0625,0,0,0,0,0
3.966,0.875,0,0,0,0,0
3.967,0.625,0,0,0,0,0
3.968,1.1875,0,0,0,0,0
3.969,2.3125,0,0,0,0,0
3.97,2.5,0,0,0,0,0
3.971,2.3125,0,0,0,0,0
3.972,2.375,0,0,0,0,0
3.973,2,0,0,0,0,0
3.974,3.25,0,0,0,0,0
3.975,3.875,0,0,0,0,0
3.976,3.1875,0,0,0,0,0
3.977,3.4375,0,0,0,0,0
3.978,4.125,0,0,0,0,0
3.979,3.25,0,0,0,0,0
3.98,3,0,0,0,0,0
3.981,2.5,0,0,0,0,0
3.982,2.1875,0,0,0,0,0
3.983,1.25,0,0,0,0,0
3.984,1.125,0,0,0,0,0
3.985,1.0625,0,0,0,0,0
3.986,1,0,0,0,0,0
3.987,0.9375,0,0,0,0,0
3.988,2.1875,0,0,0,0,0
3.989,1.875,0,0,0,0,0
3.99,2.0625,0,0,0,0,0
3.991,2.625,0,0,0,0,0
3.992,2.5625,0,0,0,0,0
3.993,2,0,0,0,0,0
3.994,1.8125,0,0,0,0,0
3.995,0.75,0,0,0,0,0
3.996,0.875,0,0,0,0,0
3.997,1.0625,0,0,0,0,0
3.998,1.1875,0,0,0,0,0
3.999,1.5625,0,0,0,0,0
4,2.4375,0,0,0,0,0
4.001,3.4375,0,0,0,0,0
4.002,3.25,0,0,0,0,0
4.003,3.125,0,0,0,0,0
4.004,3.4375,0,0,0,0,0
4.005,3.4375,0,0,0,0,0
4.006,2.5,0,0,0,0,0
4.007,1.375,0,0,0,0,0
4.008,1.25,0,0,0,0,0
4.009,1.6875,0,0,0,0,0
4.01,2.125,0,0,0,0,0
4.011,2.9375,0,0,0,0,0
4.012,3.5,0,0,0,0,0
4.013,4.0625,0,0,0,0,0
4.014,4.625,0,0,0,0,0
4.015,4.8125,0,0,0,0,0
4.016,4.25,0,0,0,0,0
4.017,4.5,0,0,0,0,0
4.018,4.0625,0,0,0,0,0
4.019,3.5625,0,0,0,0,0
4.02,3.5625,0,0,0,0,0
4.021,3.25,0,0,0,0,0
4.022,3.125,0,0,0,0,0
4.023,2.9375,0,0,0,0,0
4.024,2.75,0,0,0,0,0
4.025,2.5,0,0,0,0,0
4.026,2.5,0,0,0,0,0
4.027,2.9375,0,0,0,0,0
4.028,2.0625,0,0,0,0,0
4.029,2.1875,0,0,0,0,0
4.03,1.625,0,0,0,0,0
4.031,1.5625,0,0,0,0,0
4.032,2.125,0,0,0,0,0
4.033,2.3125,0,0,0,0,0
4.034,2.9375,0,0,0,0,0
4.035,3.75,0,0,0,0,0
4.036,3.875,0,0,0,0,0
4.037,3.25,0,0,0,0,0
4.038,2.8125,0,0,0,0,0
4.039,1.6875,0,0,0,0,0
4.04,2,0,0,0,0,0
4.041,1.375,0,0,0,0,0
4.042,1.1875,0,0,0,0,0
4.043,1.375,0,0,0,0,0
4.044,1.75,0,0,0,0,0
4.045,1.6875,0,0,0,0,0
4.046,2.25,0,0,0,0,0
4.047,2.8125,0,0,0,0,0
4.048,4.25,0,0,0,0,0
4.049,5.4375,0,0,0,0,0
4.05,4.9375,0,0,0,0,0
4.051,4.1875,0,0,0,0,0
4.052,3.625,0,0,0,0,0
4.053,2.8125,0,0,0,0,0
4.054,2.625,0,0,0,0,0
4.055,2.5,0,0,0,0,0
4.056,3.375,0,0,0,0,0
4.057,2.9375,0,0,0,0,0
4.058,2.9375,0,0,0,0,0
4.059,2.9375,0,0,0,0,0
4.06,2.75,0,0,0,0,0
4.061,2.3125,0,0,0,0,0
4.062,1.6875,0,0,0,0,0
4.063,1.375,0,0,0,0,0
4.064,1.8125,0,0,0,0,0
4.065,1.5625,0,0,0,0,0
4.066,0.875,0,0,0,0,0
4.067,1.5625,0,0,0,0,0
4.068,2,0,0,0,0,0
4.069,2,0,0,0,0,0
4.07,1.875,0,0,0,0,0
4.071,2,0,0,0,0,0
4.072,3.125,0,0,0,0,0
4.073,3.25,0,0,0,0,0
4.074,3.75,0,0,0,0,0
4.075,3.25,0,0,0,0,0
4.076,4.5625,0,0,0,0,0
4.077,4.0625,0,0,0,0,0
4.078,2.875,0,0,0,0,0
4.079,1.875,0,0,0,0,0
4.08,1.4375,0,0,0,0,0
4.081,1.375,0,0,0,0,0
4.082,1.4375,0,0,0,0,0
4.083,1.5625,0,0,0,0,0
4.084,1.8125,0,0,0,0,0
4.085,1.6875,0,0,0,0,0
4.086,1.1875,0,0,0,0,0
4.087,1.0625,0,0,0,0,0
4.088,0.75,0,0,0,0,0
4.089,1.0625,0,0,0,0,0
4.09,1.0625,0,0,0,0,0
4.091,1.6875,0,0,0,0,0
4.092,1.75,0,0,0,0,0
4.093,1.875,0,0,0,0,0
4.094,2.4375,0,0,0,0,0
4.095,2.8125,0,0,0,0,0
4.096,3.375,0,0,0,0,0
4.097,4.0625,0,0,0,0,0
4.098,3.0625,0,0,0,0,0
4.099,3.125,0,0,0,0,0
4.1,2.4375,0,0,0,0,0
4.101,2.625,0,0,0,0,0
4.102,2.3125,0,0,0,0,0
4.103,2,0,0,0,0,0
4.104,2.9375,0,0,0,0,0
4.105,3.5625,0,0,0,0,0
4.106,4.8125,0,0,0,0,0
4.107,4.1875,0,0,0,0,0
4.108,3.25,0,0,0,0,0
4.109,2.8125,0,0,0,0,0
4.11,3.1875,0,0,0,0,0
4.111,2.1875,0,0,0,0,0
4.112,1.6875,0,0,0,0,0
4.113,1.375,0,0,0,0,0
4.114,1.625,0,0,0,0,0
4.115,2.1875,0,0,0,0,0
4.116,1.9375,0,0,0,0,0
4.117,1.875,0,0,0,0,0
4.118,2.25,0,0,0,0,0
4.119,2.625,0,0,0,0,0
4.12,3.1875,0,0,0,0,0
4.121,3.25,0,0,0,0,0
4.122,3.5,0,0,0,0,0
4.123,3.125,0,0,0,0,0
4.124,3.75,0,0,0,0,0
4.125,5.125,0,0,0,0,0
4.126,5.125,0,0,0,0,0
4.127,5.4375,0,0,0,0,0
4.128,5.75,0,0,0,0,0
4.129,6.25,0,0,0,0,0
4.13,6.0625,0,0,0,0,0
4.131,5.9375,0,0,0,0,0
4.132,5.5625,0,0,0,0,0
4.133,5.125,0,0,0,0,0
4.134,4.4375,0,0,0,0,0
4.135,5,0,0,0,0,0
4.136,5.0625,0,0,0,0,0
4.137,5.625,0,0,0,0,0
4.138,5.9375,0,0,0,0,0
4.139,5.9375,0,0,0,0,0
4.14,4.875,0,0,0,0,0
4.141,4.8125,0,0,0,0,0
4.142,5.8125,0,0,0,0,0
4.143,6.25,0,0,0,0,0
4.144,6,0,0,0,0,0
4.145,6.25,0,0,0,0,0
4.146,6,0,0,0,0,0
4.147,6.25,0,0,0,0,0
4.148,6,0,0,0,0,0
4.149,5.75,0,0,0,0,0
4.15,6.3125,0,0,0,0,0
4.151,6.6875,0,0,0,0,0
4.152,6.25,0,0,0,0,0
4.153,5.9375,0,0,0,0,0
4.154,5.125,0,0,0,0,0
4.155,3.5625,0,0,0,0,0
4.156,4,0,0,0,0,0
4.157,4.1875,0,0,0,0,0
4.158,4.3125,0,0,0,0,0
4.159,3.875,0,0,0,0,0
4.16,4.0625,0,0,0,0,0
4.161,3.5625,0,0,0,0,0
4.162,3.5,0,0,0,0,0
4.163,3.5625,0,0,0,0,0
4.164,3.6875,0,0,0,0,0
4.165,4.375,0,0,0,0,0
4.166,4.3125,0,0,0,0,0
4.167,4.0625,0,0,0,0,0
4.168,4.0625,0,0,0,0,0
4.169,4.5,0,0,0,0,0
4.17,5.9375,0,0,0,0,0
4.171,6.375,0,0,0,0,0
4.172,6.1875,0,0,0,0,0
4.173,5.3125,0,0,0,0,0
4.174,5.1875,0,0,0,0,0
4.175,4.8125,0,0,0,0,0
4.176,4.5625,0,0,0,0,0
4.177,4.375,0,0,0,0,0
4.178,5.375,0,0,0,0,0
4.179,5,0,0,0,0,0
4.18,5.0625,0,0,0,0,0
4.181,5.4375,0,0,0,0,0
4.182,5.75,0,0,0,0,0
4.183,6.6875,0,0,0,0,0
4.184,6.5625,0,0,0,0,0
4.185,6.0625,0,0,0,0,0
4.186,4.9375,0,0,0,0,0
4.187,3.875,0,0,0,0,0
4.188,3.4375,0,0,0,0,0
4.189,3.4375,0,0,0,0,0
4.19,3,0,0,0,0,0
4.191,2.9375,0,0,0,0,0
4.192,2.5,0,0,0,0,0
4.193,1.375,0,0,0,0,0
4.194,1.5,0,0,0,0,0
4.195,1.5625,0,0,0,0,0
4.196,1.0625,0,0,0,0,0
4.197,0.75,0,0,0,0,0
4.198,1.125,0,0,0,0,0
4.199,1.25,0,0,0,0,0
4.2,1.1875,0,0,0,0,0
4.201,1.0625,0,0,0,0,0
4.202,1.0625,0,0,0,0,0
4.203,0.625,0,0,0,0,0
4.204,0.3125,0,0,0,0,0
4.205,0.625,0,0,0,0,0
4.206,1.5,0,0,0,0,0
4.207,2.625,0,0,0,0,0
4.208,2.6875,0,0,0,0,0
4.209,2.5,0,0,0,0,0
4.21,2.3125,0,0,0,0,0
4.211,1.6875,0,0,0,0,0
4.212,1.3125,0,0,0,0,0
4.213,0.9375,0,0,0,0,0
4.214,0.9375,0,0,0,0,0
4.215,0.125,0,0,0,0,0
4.216,0.9375,0,0,0,0,0
4.217,1.375,0,0,0,0,0
4.218,1.625,0,0,0,0,0
4.219,2,0,0,0,0,0
4.22,2.375,0,0,0,0,0
4.221,2.3125,0,0,0,0,0
4.222,2.4375,0,0,0,0,0
4.223,1.375,0,0,0,0,0
4.224,1.5,0,0,0,0,0
4.225,1.5625,0,0,0,0,0
4.226,1.5625,0,0,0,0,0
4.227,2.625,0,0,0,0,0
4.228,2.75,0,0,0,0,0
4.229,2.8125,0,0,0,0,0
4.23,2.5,0,0,0,0,0
4.231,2.3125,0,0,0,0,0
4.232,2.3125,0,0,0,0,0
4.233,2.625,0,0,0,0,0
4.234,2.0625,0,0,0,0,0
4.235,2.625,0,0,0,0,0
4.236,1.875,0,0,0,0,0
4.237,1.875,0,0,0,0,0
4.238,2.4375,0,0,0,0,0
4.239,3.25,0,0,0,0,0
4.24,2.9375,0,0,0,0,0
4.241,2.5,0,0,0,0,0
4.242,2.5625,0,0,0,0,0
4.243,2.9375,0,0,0,0,0
4.244,1.875,0,0,0,0,0
4.245,0.9375,0,0,0,0,0
4.246,1.1875,0,0,0,0,0
4.247,0.75,0,0,0,0,0
4.248,0.5,0,0,0,0,0
4.249,0.3125,0,0,0,0,0
4.25,-0.125,0,0,0,0,0
4.251,-0.1875,0,0,0,0,0
4.252,-1.1875,0,0,0,0,0
4.253,-1.4375,0,0,0,0,0
4.254,-1.4375,0,0,0,0,0
4.255,-2.375,0,0,0,0,0
4.256,-2.5625,0,0,0,0,0
4.257,-2.8125,0,0,0,0,0
4.258,-2.0625,0,0,0,0,0
4.259,-2.0625,0,0,0,0,0
4.26,-1,0,0,0,0,0
4.261,0.9375,0,0,0,0,0
4.262,2,0,0,0,0,0
4.263,3.25,0,0,0,0,0
4.264,2.375,0,0,0,0,0
4.265,3.125,1,0,0,0,0
4.266,2.1875,0,0,0,0,0
4.267,1.6875,0,0,0,0,0
4.268,1.625,0,0,0,0,0
4.269,1.375,0,0,0,0,0
4.27,2.1875,0,0,0,0,0
4.271,2.5,0,0,0,0,0
4.272,3.625,0,0,0,0,0
4.273,3.75,0,0,0,0,0
4.274,3.5625,0,0,0,0,0
4.275,2.9375,0,0,0,0,0
4.276,2.875,0,0,0,0,0
4.277,2.8125,0,0,0,0,0
4.278,2.5625,0,0,0,0,0
4.279,2.1875,0,0,0,0,0
4.28,2.25,0,0,0,0,0
4.281,2.3125,0,0,0,0,0
4.282,2.625,0,0,0,0,0
4.283,2.8125,0,0,0,0,0
4.284,1.6875,0,0,0,0,0
4.285,2.3125,0,0,0,0,0
4.286,3.125,0,0,0,0,0
4.287,4.5,0,0,0,0,0
4.288,5.625,0,0,0,0,0
4.289,7,0,0,0,0,0
4.29,8.125,0,0,0,0,0
4.291,8.25,0,0,0,0,0
4.292,9.1875,0,0,0,0,0
4.293,10.313,0,0,0,0,0
4.294,12,0,0,0,0,0
4.295,13.125,0,0,0,0,0
4.296,14.438,0,0,0,0,0
4.297,15.75,0,0,0,0,0
4.298,16.625,0,0,0,0,0
4.299,17.5,0,0,0,0,0
4.3,19.313,0,0,0,0,0
4.301,21.25,0,0,0,0,0
4.302,23,0,0,0,0,0
4.303,25.313,0,0,0,0,0
4.304,26.875,0,0,0,0,0
4.305,28.563,0,0,0,0,0
4.306,30.313,0,0,0,0,0
4.307,31.563,0,0,0,0,0
4.308,32.688,0,0,0,0,0
4.309,34.063,0,0,0,0,0
4.31,35.438,0,0,0,0,0
4.311,36.563,0,0,0,0,0
4.312,37.125,0,1,0,0,0
4.313,38.438,0,0,0,0,0
4.314,38.25,0,0,0,0,0
4.315,37,0,0,0,0,0
4.316,35.25,0,0,0,0,0
4.317,32.5,0,0,0,0,0
4.318,29.25,0,0,0,0,0
4.319,25.125,0,0,0,0,0
4.32,22.875,0,0,0,0,0
4.321,20.125,0,0,0,0,0
4.322,17.813,0,0,0,0,0
4.323,13.875,0,0,0,0,0
4.324,9.4375,0,0,0,0,0
4.325,5.4375,0,0,0,0,0
4.326,1.75,0,0,0,0,0
4.327,-2.1875,0,0,0,0,0
4.328,-6.9375,0,0,0,0,0
4.329,-11.25,0,0,0,0,0
4.33,-14.313,0,0,0,0,0
4.331,-18.125,0,0,0,0,0
4.332,-20.563,0,0,0,0,0
4.333,-23,0,0,0,0,0
4.334,-26,0,0,0,0,0
4.335,-29.25,0,0,0,0,0
4.336,-32.5,0,0,0,0,0
4.337,-35.5,0,0,0,0,0
4.338,-36.688,0,0,0,0,0
4.339,-37.5,0,0,0,0,0
4.34,-38.25,0,0,0,0,0
4.341,-37.813,0,0,0,0,0
4.342,-37.75,0,0,0,0,0
4.343,-36.875,0,0,0,0,0
4.344,-35,0,0,0,0,0
4.345,-33.625,0,0,0,0,0
4.346,-31.25,0,0,0,0,0
4.347,-29.063,0,0,0,0,0
4.348,-26.75,0,0,0,0,0
4.349,-25.188,0,0,0,0,0
4.35,-24.188,0,0,0,0,0
4.351,-22.688,0,0,0,0,0
4.352,-22.063,0,0,0,0,0
4.353,-21.25,0,0,0,0,0
4.354,-21,0,0,0,0,0
4.355,-20.938,0,0,0,0,0
4.356,-20.125,0,0,0,0,0
4.357,-19.375,0,0,0,0,0
4.358,-19.313,0,0,0,0,0
4.359,-19.563,0,0,0,0,0
4.36,-19.375,0,0,0,0,0
4.361,-19.25,0,0,0,0,0
4.362,-19.438,0,0,0,0,0
4.363,-18.938,0,0,0,0,0
4.364,-17.5,0,0,0,0,0
4.365,-16.75,0,0,0,0,0
4.366,-16.063,0,0,0,0,0
4.367,-15.188,0,0,0,0,0
4.368,-14,0,0,0,0,0
4.369,-13.313,0,0,0,0,0
4.37,-13.063,0,0,0,0,0
4.371,-13.125,0,0,0,0,0
4.372,-13.25,0,0,0,0,0
4.373,-13.438,0,0,0,0,0
4.374,-12.75,0,0,0,0,0
4.375,-12.688,0,0,0,0,0
4.376,-12.5,0,0,0,0,0
4.377,-11.875,0,0,0,0,0
4.378,-11.063,0,0,0,0,0
4.379,-10.625,0,0,0,0,0
4.38,-11,0,0,0,0,0
4.381,-10.5,0,0,0,0,0
4.382,-10.25,0,0,0,0,0
4.383,-10.5,0,0,0,0,0
4.384,-10.313,0,0,0,0,0
4.385,-10.938,0,0,0,0,0
4.386,-11.438,0,0,0,0,0
4.387,-12.188,0,0,0,0,0
4.388,-12.438,0,0,0,0,0
4.389,-12.188,0,0,0,0,0
4.39,-11.75,0,0,0,0,0
4.391,-11.125,0,0,0,0,0
4.392,-11.313,0,0,0,0,0
4.393,-10.938,0,0,0,0,0
4.394,-11.313,0,0,0,0,0
4.395,-12.063,0,0,0,0,0
4.396,-12.063,0,0,0,0,0
4.397,-12.188,0,0,0,0,0
4.398,-12.063,0,0,0,0,0
4.399,-11.875,0,0,0,0,0
4.4,-11.75,0,0,0,0,0
4.401,-11.438,0,0,0,0,0
4.402,-11.875,0,0,0,0,0
4.403,-12.688,0,0,0,0,0
4.404,-12.875,0,0,0,0,0
4.405,-13.125,0,0,0,0,0
4.406,-12.5,0,0,0,0,0
4.407,-12.5,0,0,0,0,0
4.408,-11.25,0,0,0,0,0
4.409,-10,0,0,0,0,0
4.41,-9.75,0,0,0,0,0
4.411,-9.875,0,0,0,0,0
4.412,-9.5625,0,0,0,0,0
4.413,-9.0625,0,0,0,0,0
4.414,-8.75,0,0,0,0,0
4.415,-7.1875,0,0,0,0,0
4.416,-6.0625,0,0,0,0,0
4.417,-5,0,0,0,0,0
4.418,-4.25,0,0,0,0,0
4.419,-3.625,0,0,0,0,0
4.42,-2.3125,0,0,0,0,0
4.421,-0.9375,0,0,0,0,0
4.422,-1.9375,0,0,0,0,0
4.423,-2.5,0,0,0,0,0
4.424,-2.3125,0,0,0,0,0
4.425,-2.0625,0,0,0,0,0
4.426,-1.5,0,0,0,0,0
4.427,-1.125,0,0,0,0,0
4.428,-1.5625,0,0,0,0,0
4.429,-1.4375,0,0,0,0,0
4.43,-1.0625,0,0,0,0,0
4.431,-0.9375,0,0,0,0,0
4.432,-0.5625,0,0,0,0,0
4.433,0.125,0,0,0,0,0
4.434,0.3125,0,0,0,0,0
4.435,0.75,0,0,0,0,0
4.436,0.0625,0,0,0,0,0
4.437,-0.3125,0,0,0,0,0
4.438,-0.4375,0,0,0,0,0
4.439,-0.3125,0,0,0,0,0
4.44,1.125,0,0,0,0,0
4.441,1.875,0,0,0,0,0
4.442,2.6875,0,0,0,0,0
4.443,3.125,0,0,0,0,0
4.444,3.5625,0,0,0,0,0
4.445,3.125,0,0,1,0,0
4.446,2.1875,0,0,0,0,0
4.447,1.0625,0,0,0,0,0
4.448,0.9375,0,0,0,0,0
4.449,1.5625,0,0,0,0,0
4.45,3.125,0,0,0,0,0
4.451,3.5625,0,0,0,0,0
4.452,3.4375,0,0,0,0,0
4.453,3.75,0,0,0,0,0
4.454,3.1875,0,0,0,0,0
4.455,3.25,0,0,0,0,0
4.456,3.5,0,0,0,0,0
4.457,4.0625,0,0,0,0,0
4.458,4.4375,0,0,0,0,0
4.459,4.1875,0,0,0,0,0
4.46,4.3125,0,0,0,0,0
4.461,4.5,0,0,0,0,0
4.462,3.6875,0,0,0,0,0
4.463,3.125,0,0,0,0,0
4.464,2.9375,0,0,0,0,0
4.465,2.5,0,0,0,0,0
4.466,3.125,0,0,0,0,0
4.467,2.5,0,0,0,0,0
4.468,1.4375,0,0,0,0,0
4.469,0.625,0,0,0,0,0
4.47,0.6875,0,0,0,0,0
4.471,0.3125,0,0,0,0,0
4.472,1.8125,0,0,0,0,0
4.473,3.4375,0,0,0,0,0
4.474,3.9375,0,0,0,0,0
4.475,3.25,0,0,0,0,0
4.476,3.125,0,0,0,0,0
4.477,2.9375,0,0,0,0,0
4.478,3.4375,0,0,0,0,0
4.479,3.875,0,0,0,0,0
4.48,4.1875,0,0,0,0,0
4.481,5,0,0,0,0,0
4.482,4.6875,0,0,0,0,0
4.483,4.6875,0,0,0,0,0
4.484,4.375,0,0,0,0,0
4.485,4.0625,0,0,0,0,0
4.486,4,0,0,0,0,0
4.487,3.25,0,0,0,0,0
4.488,2.75,0,0,0,0,0
4.489,2.9375,0,0,0,0,0
4.49,2.6875,0,0,0,0,0
4.491,2.9375,0,0,0,0,0
4.492,2.875,0,0,0,0,0
4.493,2.3125,0,0,0,0,0
4.494,3.5625,0,0,0,0,0
4.495,3.875,0,0,0,0,0
4.496,4.1875,0,0,0,0,0
4.497,4.8125,0,0,0,0,0
4.498,4.6875,0,0,0,0,0
4.499,5,0,0,0,0,0
4.5,4.125,0,0,0,0,0
4.501,4.1875,0,0,0,0,0
4.502,4.125,0,0,0,0,0
4.503,4.375,0,0,0,0,0
4.504,4.1875,0,0,0,0,0
4.505,3.75,0,0,0,0,0
4.506,3.875,0,0,0,0,0
4.507,3.5625,0,0,0,0,0
4.508,4.5625,0,0,0,0,0
4.509,5.125,0,0,0,0,0
4.51,4.5625,0,0,0,0,0
4.511,4.375,0,0,0,0,0
4.512,3.9375,0,0,0,0,0
4.513,3.875,0,0,0,0,0
4.514,4.0625,0,0,0,0,0
4.515,4.5,0,0,0,0,0
4.516,4.625,0,0,0,0,0
4.517,4.8125,0,0,0,0,0
4.518,4.6875,0,0,0,0,0
4.519,4.6875,0,0,0,0,0
4.52,4.75,0,0,0,0,0
4.521,4.8125,0,0,0,0,0
4.522,4.75,0,0,0,0,0
4.523,4.1875,0,0,0,0,0
4.524,4.3125,0,0,0,0,0
4.525,3.875,0,0,0,0,0
4.526,3.3125,0,0,0,0,0
4.527,3.25,0,0,0,0,0
4.528,4.125,0,0,0,0,0
4.529,4.0625,0,0,0,0,0
4.53,4.5,0,0,0,0,0
4.531,4.0625,0,0,0,0,0
4.532,3.875,0,0,0,0,0
4.533,3.4375,0,0,0,0,0
4.534,3.625,0,0,0,0,0
4.535,3.75,0,0,0,0,0
4.536,4.9375,0,0,0,0,0
4.537,5.625,0,0,0,0,0
4.538,6.5,0,0,0,0,0
4.539,6.375,0,0,0,0,0
4.54,6.6875,0,0,0,0,0
4.541,7,0,0,0,0,0
4.542,6.9375,0,0,0,0,0
4.543,7,0,0,0,0,0
4.544,6.4375,0,0,0,0,0
4.545,5.4375,0,0,0,0,0
4.546,5.4375,0,0,0,0,0
4.547,5.9375,0,0,0,0,0
4.548,5.5,0,0,0,0,0
4.549,5,0,0,0,0,0
4.55,4.625,0,0,0,0,0
4.551,4.6875,0,0,0,0,0
4.552,4.9375,0,0,0,0,0
4.553,5.9375,0,0,0,0,0
4.554,6.375,0,0,0,0,0
4.555,7.1875,0,0,0,0,0
4.556,6.9375,0,0,0,0,0
4.557,7,0,0,0,0,0
4.558,6.4375,0,0,0,0,0
4.559,5.9375,0,0,0,0,0
4.56,6.0625,0,0,0,0,0
4.561,6.375,0,0,0,0,0
4.562,7.0625,0,0,0,0,0
4.563,7.3125,0,0,0,0,0
4.564,7.4375,0,0,0,0,0
4.565,7.8125,0,0,0,0,0
4.566,7.625,0,0,0,0,0
4.567,7.625,0,0,0,0,0
4.568,6.625,0,0,0,0,0
4.569,7,0,0,0,0,0
4.57,6.5625,0,0,0,0,0
4.571,6.375,0,0,0,0,0
4.572,6.4375,0,0,0,0,0
4.573,6.6875,0,0,0,0,0
4.574,5.9375,0,0,0,0,0
4.575,6.375,0,0,0,0,0
4.576,7.125,0,0,0,0,0
4.577,8.4375,0,0,0,0,0
4.578,9.1875,0,0,0,0,0
4.579,9.1875,0,0,0,0,0
4.58,8.6875,0,0,0,0,0
4.581,7.9375,0,0,0,0,0
4.582,8.125,0,0,0,0,0
4.583,8.5625,0,0,0,0,0
4.584,8.4375,0,0,0,0,0
4.585,8.5625,0,0,0,0,0
4.586,8.75,0,0,0,0,0
4.587,9.0625,0,0,0,0,0
4.588,8.8125,0,0,0,0,0
4.589,8.75,0,0,0,0,0
4.59,9.0625,0,0,0,0,0
4.591,9.6875,0,0,0,0,0
4.592,9.9375,0,0,0,0,0
4.593,9.8125,0,0,0,0,0
4.594,8.9375,0,0,0,0,0
4.595,8.875,0,0,0,0,0
4.596,8.5,0,0,0,0,0
4.597,8.5625,0,0,0,0,0
4.598,8.3125,0,0,0,0,0
4.599,8.4375,0,0,0,0,0
4.6,8.75,0,0,0,0,0
4.601,8.5625,0,0,0,0,0
4.602,8.5625,0,0,0,0,0
4.603,8.125,0,0,0,0,0
4.604,7.6875,0,0,0,0,0
4.605,6.5625,0,0,0,0,0
4.606,6.125,0,0,0,0,0
4.607,6.375,0,0,0,0,0
4.608,8.5625,0,0,0,0,0
4.609,10.125,0,0,0,0,0
4.61,10.938,0,0,0,0,0
4.611,12.188,0,0,0,0,0
4.612,12.25,0,0,0,0,0
4.613,11.875,0,0,0,0,0
4.614,11.5,0,0,0,1,0
4.615,10.75,0,0,0,0,0
4.616,10.25,0,0,0,0,0
4.617,10.125,0,0,0,0,0
4.618,10,0,0,0,0,0
4.619,9.8125,0,0,0,0,0
4.62,10.25,0,0,0,0,0
4.621,10.125,0,0,0,0,0
4.622,9.875,0,0,0,0,0
4.623,9.5,0,0,0,0,0
4.624,10.25,0,0,0,0,0
4.625,10,0,0,0,0,0
4.626,10.688,0,0,0,0,0
4.627,10.625,0,0,0,0,0
4.628,10,0,0,0,0,0
4.629,9.8125,0,0,0,0,0
4.63,10,0,0,0,0,0
4.631,9.6875,0,0,0,0,0
4.632,8.875,0,0,0,0,0
4.633,8.875,0,0,0,0,0
4.634,8.875,0,0,0,0,0
4.635,9.1875,0,0,0,0,0
4.636,9.3125,0,0,0,0,0
4.637,9.0625,0,0,0,0,0
4.638,9.25,0,0,0,0,0
4.639,9.1875,0,0,0,0,0
4.64,8.9375,0,0,0,0,0
4.641,8.875,0,0,0,0,0
4.642,9,0,0,0,0,0
4.643,8.75,0,0,0,0,0
4.644,8.25,0,0,0,0,0
4.645,9.0625,0,0,0,0,0
4.646,8.75,0,0,0,0,0
4.647,8.4375,0,0,0,0,0
4.648,7.4375,0,0,0,0,0
4.649,6.5625,0,0,0,0,0
4.65,5.3125,0,0,0,0,0
4.651,5.4375,0,0,0,0,0
4.652,5.25,0,0,0,0,0
4.653,5,0,0,0,0,0
4.654,5.0625,0,0,0,0,0
4.655,5.625,0,0,0,0,0
4.656,6.875,0,0,0,0,0
4.657,8.875,0,0,0,0,0
4.658,8.625,0,0,0,0,0
4.659,8.25,0,0,0,0,0
4.66,6.9375,0,0,0,0,0
4.661,5.625,0,0,0,0,0
4.662,5.6875,0,0,0,0,0
4.663,6.25,0,0,0,0,0
4.664,5.5625,0,0,0,0,0
4.665,5.4375,0,0,0,0,0
4.666,4.875,0,0,0,0,0
4.667,5.9375,0,0,0,0,0
4.668,6.75,0,0,0,0,0
4.669,7.1875,0,0,0,0,0
4.67,7.5,0,0,0,0,0
4.671,7.5,0,0,0,0,0
4.672,6.0625,0,0,0,0,0
4.673,5.3125,0,0,0,0,0
4.674,4.8125,0,0,0,0,0
4.675,4.1875,0,0,0,0,0
4.676,3.875,0,0,0,0,0
4.677,3.25,0,0,0,0,0
4.678,3.1875,0,0,0,0,0
4.679,2.5,0,0,0,0,0
4.68,3.75,0,0,0,0,0
4.681,4.1875,0,0,0,0,0
4.682,4.125,0,0,0,0,0
4.683,4.6875,0,0,0,0,0
4.684,4.375,0,0,0,0,0
4.685,4.1875,0,0,0,0,0
4.686,3.3125,0,0,0,0,0
4.687,2.625,0,0,0,0,0
4.688,1.75,0,0,0,0,0
4.689,2.1875,0,0,0,0,0
4.69,2.3125,0,0,0,0,0
4.691,2.3125,0,0,0,0,0
4.692,3,0,0,0,0,0
4.693,2.9375,0,0,0,0,1
4.694,3.5625,0,0,0,0,0
4.695,3.75,0,0,0,0,0
4.696,2.125,0,0,0,0,0
4.697,0.9375,0,0,0,0,0
4.698,0.3125,0,0,0,0,0
4.699,0.625,0,0,0,0,0
4.7,0.625,0,0,0,0,0
4.701,0.75,0,0,0,0,0
4.702,1.25,0,0,0,0,0
4.703,1.5625,0,0,0,0,0
4.704,2,0,0,0,0,0
4.705,1.875,0,0,0,0,0
4.706,2.1875,0,0,0,0,0
4.707,2.8125,0,0,0,0,0
4.708,2.6875,0,0,0,0,0
4.709,2.8125,0,0,0,0,0
4.71,2.25,0,0,0,0,0
4.711,2.1875,0,0,0,0,0
4.712,2.75,0,0,0,0,0
4.713,2.625,0,0,0,0,0
4.714,2.75,0,0,0,0,0
4.715,2.1875,0,0,0,0,0
4.716,1.9375,0,0,0,0,0
4.717,1.875,0,0,0,0,0
4.718,1.875,0,0,0,0,0
4.719,1.875,0,0,0,0,0
4.72,1.4375,0,0,0,0,0
4.721,0.9375,0,0,0,0,0
4.722,1.3125,0,0,0,0,0
4.723,1.25,0,0,0,0,0
4.724,1.5,0,0,0,0,0
4.725,2,0,0,0,0,0
4.726,1.875,0,0,0,0,0
4.727,1.5625,0,0,0,0,0
4.728,1.3125,0,0,0,0,0
4.729,1.25,0,0,0,0,0
4.73,1.625,0,0,0,0,0
4.731,1.0625,0,0,0,0,0
4.732,1.25,0,0,0,0,0
4.733,2.5,0,0,0,0,0
4.734,2.75,0,0,0,0,0
4.735,2.9375,0,0,0,0,0
4.736,3.3125,0,0,0,0,0
4.737,3.125,0,0,0,0,0
4.738,3.0625,0,0,0,0,0
4.739,2.3125,0,0,0,0,0
4.74,1.5,0,0,0,0,0
4.741,0.4375,0,0,0,0,0
4.742,0.375,0,0,0,0,0
4.743,0.625,0,0,0,0,0
4.744,2.3125,0,0,0,0,0
4.745,2.9375,0,0,0,0,0
4.746,2.375,0,0,0,0,0
4.747,2.9375,0,0,0,0,0
4.748,2.375,0,0,0,0,0
4.749,1.875,0,0,0,0,0
4.75,1.8125,0,0,0,0,0
4.751,1.5625,0,0,0,0,0
4.752,2.125,0,0,0,0,0
4.753,1.6875,0,0,0,0,0
4.754,1.75,0,0,0,0,0
4.755,1.6875,0,0,0,0,0
4.756,1.25,0,0,0,0,0
4.757,1.25,0,0,0,0,0
4.758,1.75,0,0,0,0,0
4.759,2,0,0,0,0,0
4.76,2.6875,0,0,0,0,0
4.761,2.9375,0,0,0,0,0
4.762,3.4375,0,0,0,0,0
4.763,3.25,0,0,0,0,0
4.764,2.125,0,0,0,0,0
4.765,1.875,0,0,0,0,0
4.766,3,0,0,0,0,0
4.767,2.5,0,0,0,0,0
4.768,2.75,0,0,0,0,0
4.769,2.625,0,0,0,0,0
4.77,2.375,0,0,0,0,0
4.771,1.375,0,0,0,0,0
4.772,1.6875,0,0,0,0,0
4.773,2,0,0,0,0,0
4.774,2.1875,0,0,0,0,0
4.775,2.3125,0,0,0,0,0
4.776,3.6875,0,0,0,0,0
4.777,3.5625,0,0,0,0,0
4.778,3.5625,0,0,0,0,0
4.779,3.875,0,0,0,0,0
4.78,3,0,0,0,0,0
4.781,1.5625,0,0,0,0,0
4.782,1.875,0,0,0,0,0
4.783,1.375,0,0,0,0,0
4.784,1.8125,0,0,0,0,0
4.785,2.3125,0,0,0,0,0
4.786,2.3125,0,0,0,0,0
4.787,2.5,0,0,0,0,0
4.788,2.6875,0,0,0,0,0
4.789,2.8125,0,0,0,0,0
4.79,2.8125,0,0,0,0,0
4.791,2.8125,0,0,0,0,0
4.792,2.9375,0,0,0,0,0
4.793,2.8125,0,0,0,0,0
4.794,2.625,0,0,0,0,0
4.795,2.3125,0,0,0,0,0
4.796,2.125,0,0,0,0,0
4.797,2.5,0,0,0,0,0
4.798,2.3125,0,0,0,0,0
4.799,2.5,0,0,0,0,0
4.8,2.375,0,0,0,0,0
4.801,2.1875,0,0,0,0,0
4.802,2.75,0,0,0,0,0
4.803,2.8125,0,0,0,0,0
4.804,2.125,0,0,0,0,0
4.805,2.3125,0,0,0,0,0
4.806,2.25,0,0,0,0,0
4.807,2.1875,0,0,0,0,0
4.808,2.3125,0,0,0,0,0
4.809,2.1875,0,0,0,0,0
4.81,2.25,0,0,0,0,0
4.811,2.3125,0,0,0,0,0
4.812,2.375,0,0,0,0,0
4.813,2.5,0,0,0,0,0
4.814,2.75,0,0,0,0,0
4.815,3.5625,0,0,0,0,0
4.816,2.75,0,0,0,0,0
4.817,2.9375,0,0,0,0,0
4.818,2.4375,0,0,0,0,0
4.819,2.3125,0,0,0,0,0
4.82,2.8125,0,0,0,0,0
4.821,2.9375,0,0,0,0,0
4.822,2.25,0,0,0,0,0
4.823,1.6875,0,0,0,0,0
4.824,2.1875,0,0,0,0,0
4.825,1.875,0,0,0,0,0
4.826,3.25,0,0,0,0,0
4.827,4.0625,0,0,0,0,0
4.828,4.625,0,0,0,0,0
4.829,4.5,0,0,0,0,0
4.83,4.0625,0,0,0,0,0
4.831,3.875,0,0,0,0,0
4.832,3.9375,0,0,0,0,0
4.833,3.5625,0,0,0,0,0
4.834,3.8125,0,0,0,0,0
4.835,4.0625,0,0,0,0,0
4.836,4.9375,0,0,0,0,0
4.837,5.625,0,0,0,0,0
4.838,5.625,0,0,0,0,0
4.839,5.4375,0,0,0,0,0
4.84,4,0,0,0,0,0
4.841,2.3125,0,0,0,0,0
4.842,1.625,0,0,0,0,0
4.843,0.9375,0,0,0,0,0
4.844,1.5,0,0,0,0,0
4.845,0.625,0,0,0,0,0
4.846,0.5,0,0,0,0,0
4.847,0.4375,0,0,0,0,0
4.848,1.5,0,0,0,0,0
4.849,2.5,0,0,0,0,0
4.85,1.875,0,0,0,0,0
4.851,1.5625,0,0,0,0,0
4.852,2.6875,0,0,0,0,0
4.853,3.25,0,0,0,0,0
4.854,2.375,0,0,0,0,0
4.855,2.8125,0,0,0,0,0
4.856,3.1875,0,0,0,0,0
4.857,3.125,0,0,0,0,0
4.858,3.25,0,0,0,0,0
4.859,3.75,0,0,0,0,0
4.86,3.875,0,0,0,0,0
4.861,3.4375,0,0,0,0,0
4.862,2.3125,0,0,0,0,0
4.863,2,0,0,0,0,0
4.864,1.625,0,0,0,0,0
4.865,2.8125,0,0,0,0,0
4.866,2.9375,0,0,0,0,0
4.867,3.125,0,0,0,0,0
4.868,2.6875,0,0,0,0,0
4.869,2.1875,0,0,0,0,0
4.87,1.625,0,0,0,0,0
4.871,1.25,0,0,0,0,0
4.872,1.0625,0,0,0,0,0
4.873,0.9375,0,0,0,0,0
4.874,0.625,0,0,0,0,0
4.875,0.75,0,0,0,0,0
4.876,2.4375,0,0,0,0,0
4.877,4.1875,0,0,0,0,0
4.878,5.125,0,0,0,0,0
4.879,4.8125,0,0,0,0,0
4.88,4.9375,0,0,0,0,0
4.881,4.5,0,0,0,0,0
4.882,4.3125,0,0,0,0,0
4.883,4.5,0,0,0,0,0
4.884,4.125,0,0,0,0,0
4.885,4.1875,0,0,0,0,0
4.886,3.9375,0,0,0,0,0
4.887,2.3125,0,0,0,0,0
4.888,2,0,0,0,0,0
4.889,1.6875,0,0,0,0,0
4.89,3.125,0,0,0,0,0
4.891,3.125,0,0,0,0,0
4.892,3.3125,0,0,0,0,0
4.893,4.1875,0,0,0,0,0
4.894,3.5625,0,0,0,0,0
4.895,4.375,0,0,0,0,0
4.896,4.1875,0,0,0,0,0
4.897,4.0625,0,0,0,0,0
4.898,3.5625,0,0,0,0,0
4.899,4.0625,0,0,0,0,0
4.9,3.5,0,0,0,0,0
4.901,3.4375,0,0,0,0,0
4.902,2.75,0,0,0,0,0
4.903,2,0,0,0,0,0
4.904,2.25,0,0,0,0,0
4.905,2,0,0,0,0,0
4.906,1.9375,0,0,0,0,0
4.907,2.1875,0,0,0,0,0
4.908,2.125,0,0,0,0,0
4.909,2.3125,0,0,0,0,0
4.91,2.8125,0,0,0,0,0
4.911,3.4375,0,0,0,0,0
4.912,3.125,0,0,0,0,0
4.913,3.4375,0,0,0,0,0
4.914,3.9375,0,0,0,0,0
4.915,3.5625,0,0,0,0,0
4.916,4.5,0,0,0,0,0
4.917,5.4375,0,0,0,0,0
4.918,5.875,0,0,0,0,0
4.919,5.625,0,0,0,0,0
4.92,5.5625,0,0,0,0,0
4.921,5.75,0,0,0,0,0
4.922,5.75,0,0,0,0,0
4.923,5.4375,0,0,0,0,0
4.924,6.875,0,0,0,0,0
4.925,6.875,0,0,0,0,0
4.926,6.5,0,0,0,0,0
4.927,6.375,0,0,0,0,0
4.928,5.75,0,0,0,0,0
4.929,5,0,0,0,0,0
4.93,5.1875,0,0,0,0,0
4.931,5.3125,0,0,0,0,0
4.932,5.25,0,0,0,0,0
4.933,5,0,0,0,0,0
4.934,5.875,0,0,0,0,0
4.935,6.25,0,0,0,0,0
4.936,6.3125,0,0,0,0,0
4.937,5.9375,0,0,0,0,0
4.938,5.9375,0,0,0,0,0
4.939,5.9375,0,0,0,0,0
4.94,5.375,0,0,0,0,0
4.941,5.125,0,0,0,0,0
4.942,5.5625,0,0,0,0,0
4.943,6.375,0,0,0,0,0
4.944,6.375,0,0,0,0,0
4.945,7.1875,0,0,0,0,0
4.946,7.625,0,0,0,0,0
4.947,7.8125,0,0,0,0,0
4.948,6.6875,0,0,0,0,0
4.949,6.5625,0,0,0,0,0
4.95,6.5625,0,0,0,0,0
4.951,6.6875,0,0,0,0,0
4.952,6.6875,0,0,0,0,0
4.953,6.25,0,0,0,0,0
4.954,6.4375,0,0,0,0,0
4.955,5.9375,0,0,0,0,0
4.956,5.75,0,0,0,0,0
4.957,6.25,0,0,0,0,0
4.958,6.5,0,0,0,0,0
4.959,6.6875,0,0,0,0,0
4.96,6.4375,0,0,0,0,0
4.961,6.875,0,0,0,0,0
4.962,5.9375,0,0,0,0,0
4.963,5.4375,0,0,0,0,0
4.964,4.9375,0,0,0,0,0
4.965,4.375,0,0,0,0,0
4.966,3.1875,0,0,0,0,0
4.967,2.625,0,0,0,0,0
4.968,2.3125,0,0,0,0,0
4.969,2.8125,0,0,0,0,0
4.97,4.25,0,0,0,0,0
4.971,5.3125,0,0,0,0,0
4.972,5.625,0,0,0,0,0
4.973,5.625,0,0,0,0,0
4.974,4.9375,0,0,0,0,0
4.975,4.0625,0,0,0,0,0
4.976,3.8125,0,0,0,0,0
4.977,3.4375,0,0,0,0,0
4.978,3.75,0,0,0,0,0
4.979,3.4375,0,0,0,0,0
4.98,2.875,0,0,0,0,0
4.981,2.5,0,0,0,0,0
4.982,1.75,0,0,0,0,0
4.983,2,0,0,0,0,0
4.984,2.75,0,0,0,0,0
4.985,2.9375,0,0,0,0,0
4.986,1.9375,0,0,0,0,0
4.987,1.375,0,0,0,0,0
4.988,0.875,0,0,0,0,0
4.989,0.3125,0,0,0,0,0
4.99,0.9375,0,0,0,0,0
4.991,2,0,0,0,0,0
4.992,2.625,0,0,0,0,0
4.993,2.8125,0,0,0,0,0
4.994,2.6875,0,0,0,0,0
4.995,2.5,0,0,0,0,0
4.996,2.8125,0,0,0,0,0
4.997,2.9375,0,0,0,0,0
4.998,3.0625,0,0,0,0,0
4.999,3.25,0,0,0,0,0
5,2.875,0,0,0,0,0
5.001,2.3125,0,0,0,0,0
5.002,1.625,0,0,0,0,0
5.003,1.6875,0,0,0,0,0
5.004,1.0625,0,0,0,0,0
5.005,1.0625,0,0,0,0,0
5.006,0.625,0,0,0,0,0
5.007,0.4375,0,0,0,0,0
5.008,0.5625,0,0,0,0,0
5.009,0.625,0,0,0,0,0
5.01,1.4375,0,0,0,0,0
5.011,2.5,0,0,0,0,0
5.012,2.625,0,0,0,0,0
5.013,3.25,0,0,0,0,0
5.014,2.0625,0,0,0,0,0
5.015,0.75,0,0,0,0,0
5.016,1.0625,0,0,0,0,0
5.017,0.9375,0,0,0,0,0
5.018,1.75,0,0,0,0,0
5.019,2.3125,0,0,0,0,0
5.02,2.4375,0,0,0,0,0
5.021,2.8125,0,0,0,0,0
5.022,3.375,0,0,0,0,0
5.023,2.625,0,0,0,0,0
5.024,3.0625,0,0,0,0,0
5.025,2.625,0,0,0,0,0
5.026,2.5625,0,0,0,0,0
5.027,2.5,0,0,0,0,0
5.028,2.5625,0,0,0,0,0
5.029,2.1875,0,0,0,0,0
5.03,2,0,0,0,0,0
5.031,2,0,0,0,0,0
5.032,2.375,0,0,0,0,0
5.033,2,0,0,0,0,0
5.034,1.1875,0,0,0,0,0
5.035,0.625,0,0,0,0,0
5.036,0.4375,0,0,0,0,0
5.037,1.0625,0,0,0,0,0
5.038,2.125,0,0,0,0,0
5.039,3.125,0,0,0,0,0
5.04,3.0625,0,0,0,0,0
5.041,1.875,0,0,0,0,0
5.042,2.4375,0,0,0,0,0
5.043,3.125,0,0,0,0,0
5.044,1.6875,0,0,0,0,0
5.045,0.9375,0,0,0,0,0
5.046,0.6875,0,0,0,0,0
5.047,1.25,0,0,0,0,0
5.048,1.3125,0,0,0,0,0
5.049,1.0625,0,0,0,0,0
5.05,0.875,0,0,0,0,0
5.051,0.3125,0,0,0,0,0
5.052,0.8125,0,0,0,0,0
5.053,0.625,0,0,0,0,0
5.054,2.5,0,0,0,0,0
5.055,2.8125,0,0,0,0,0
5.056,2.875,0,0,0,0,0
5.057,2.3125,0,0,0,0,0
5.058,0.625,0,0,0,0,0
5.059,0,0,0,0,0,0
5.06,-1,0,0,0,0,0
5.061,-0.8125,0,0,0,0,0
5.062,-0.375,0,0,0,0,0
5.063,-0.1875,1,0,0,0,0
5.064,-0.3125,0,0,0,0,0
5.065,0,0,0,0,0,0
5.066,0.375,0,0,0,0,0
5.067,1.25,0,0,0,0,0
5.068,1.5625,0,0,0,0,0
5.069,1.6875,0,0,0,0,0
5.07,2.6875,0,0,0,0,0
5.071,3.75,0,0,0,0,0
5.072,4.25,0,0,0,0,0
5.073,4.375,0,0,0,0,0
5.074,4.75,0,0,0,0,0
5.075,4.375,0,0,0,0,0
5.076,4.5625,0,0,0,0,0
5.077,4.375,0,0,0,0,0
5.078,5.6875,0,0,0,0,0
5.079,7.1875,0,0,0,0,0
5.08,6.875,0,0,0,0,0
5.081,7.3125,0,0,0,0,0
5.082,8.5625,0,0,0,0,0
5.083,10,0,0,0,0,0
5.084,11.313,0,0,0,0,0
5.085,12.938,0,0,0,0,0
5.086,13.813,0,0,0,0,0
5.087,15.313,0,0,0,0,0
5.088,16.25,0,0,0,0,0
5.089,17.5,0,0,0,0,0
5.09,19.438,0,0,0,0,0
5.091,21.063,0,0,0,0,0
5.092,24,0,0,0,0,0
5.093,26.563,0,0,0,0,0
5.094,29.125,0,0,0,0,0
5.095,32,0,0,0,0,0
5.096,32.938,0,0,0,0,0
5.097,34.063,0,0,0,0,0
5.098,36,0,0,0,0,0
5.099,36.875,0,0,0,0,0
5.1,37.938,0,0,0,0,0
5.101,38.875,0,0,0,0,0
5.102,40.563,0,0,0,0,0
5.103,40.938,0,0,0,0,0
5.104,41.063,0,0,0,0,0
5.105,41.063,0,1,0,0,0
5.106,39.813,0,0,0,0,0
5.107,38.125,0,0,0,0,0
5.108,34,0,0,0,0,0
5.109,30.625,0,0,0,0,0
5.11,28.688,0,0,0,0,0
5.111,26.063,0,0,0,0,0
5.112,20.625,0,0,0,0,0
5.113,15.75,0,0,0,0,0
5.114,11.063,0,0,0,0,0
5.115,6.875,0,0,0,0,0
5.116,3.125,0,0,0,0,0
5.117,-1.25,0,0,0,0,0
5.118,-5.625,0,0,0,0,0
5.119,-9.375,0,0,0,0,0
5.12,-13.813,0,0,0,0,0
5.121,-17.063,0,0,0,0,0
5.122,-19.75,0,0,0,0,0
5.123,-22.375,0,0,0,0,0
5.124,-25.688,0,0,0,0,0
5.125,-29.063,0,0,0,0,0
5.126,-32.063,0,0,0,0,0
5.127,-33.438,0,0,0,0,0
5.128,-34.813,0,0,0,0,0
5.129,-36.875,0,0,0,0,0
5.13,-37.5,0,0,0,0,0
5.131,-38,0,0,0,0,0
5.132,-37.813,0,0,0,0,0
5.133,-37.188,0,0,0,0,0
5.134,-36.75,0,0,0,0,0
5.135,-34.875,0,0,0,0,0
5.136,-32.438,0,0,0,0,0
5.137,-30.313,0,0,0,0,0
5.138,-28.625,0,0,0,0,0
5.139,-27.063,0,0,0,0,0
5.14,-25.813,0,0,0,0,0
5.141,-25.188,0,0,0,0,0
5.142,-24.063,0,0,0,0,0
5.143,-23,0,0,0,0,0
5.144,-21.063,0,0,0,0,0
5.145,-19.25,0,0,0,0,0
5.146,-18.938,0,0,0,0,0
5.147,-18.625,0,0,0,0,0
5.148,-18.938,0,0,0,0,0
5.149,-18.938,0,0,0,0,0
5.15,-16.938,0,0,0,0,0
5.151,-15.5,0,0,0,0,0
5.152,-15.438,0,0,0,0,0
5.153,-14.688,0,0,0,0,0
5.154,-15.313,0,0,0,0,0
5.155,-16.125,0,0,0,0,0
5.156,-16,0,0,0,0,0
5.157,-16.25,0,0,0,0,0
5.158,-16.563,0,0,0,0,0
5.159,-16.25,0,0,0,0,0
5.16,-15.688,0,0,0,0,0
5.161,-14.688,0,0,0,0,0
5.162,-13.625,0,0,0,0,0
5.163,-12.188,0,0,0,0,0
5.164,-11.875,0,0,0,0,0
5.165,-11.563,0,0,0,0,0
5.166,-12,0,0,0,0,0
5.167,-11.75,0,0,0,0,0
5.168,-11.188,0,0,0,0,0
5.169,-11.438,0,0,0,0,0
5.17,-10.188,0,0,0,0,0
5.171,-9.875,0,0,0,0,0
5.172,-10.375,0,0,0,0,0
5.173,-10.188,0,0,0,0,0
5.174,-10.625,0,0,0,0,0
5.175,-10.313,0,0,0,0,0
5.176,-10.5,0,0,0,0,0
5.177,-10.625,0,0,0,0,0
5.178,-10.688,0,0,0,0,0
5.179,-10.938,0,0,0,0,0
5.18,-11.125,0,0,0,0,0
5.181,-11.875,0,0,0,0,0
5.182,-11.563,0,0,0,0,0
5.183,-11.75,0,0,0,0,0
5.184,-13.875,0,0,0,0,0
5.185,-15.313,0,0,0,0,0
5.186,-15.313,0,0,0,0,0
5.187,-15.5,0,0,0,0,0
5.188,-14.875,0,0,0,0,0
5.189,-14.25,0,0,0,0,0
5.19,-12.875,0,0,0,0,0
5.191,-11.438,0,0,0,0,0
5.192,-11.5,0,0,0,0,0
5.193,-11.75,0,0,0,0,0
5.194,-12.625,0,0,0,0,0
5.195,-13.125,0,0,0,0,0
5.196,-13.875,0,0,0,0,0
5.197,-13.75,0,0,0,0,0
5.198,-13.063,0,0,0,0,0
5.199,-12.063,0,0,0,0,0
5.2,-11.063,0,0,0,0,0
5.201,-10.188,0,0,0,0,0
5.202,-9.3125,0,0,0,0,0
5.203,-8.9375,0,0,0,0,0
5.204,-8.625,0,0,0,0,0
5.205,-8.4375,0,0,0,0,0
5.206,-6.5,0,0,0,0,0
5.207,-4.875,0,0,0,0,0
5.208,-4.5,0,0,0,0,0
5.209,-4.375,0,0,0,0,0
5.21,-4.25,0,0,0,0,0
5.211,-4.5625,0,0,0,0,0
5.212,-4.625,0,0,0,0,0
5.213,-4.25,0,0,0,0,0
5.214,-3.25,0,0,0,0,0
5.215,-2.8125,0,0,0,0,0
5.216,-1.8125,0,0,0,0,0
5.217,-0.625,0,0,0,0,0
5.218,0.125,0,0,0,0,0
5.219,0.75,0,0,0,0,0
5.22,0.8125,0,0,0,0,0
5.221,0.9375,0,0,0,0,0
5.222,1.5,0,0,0,0,0
5.223,1.375,0,0,0,0,0
5.224,2.0625,0,0,0,0,0
5.225,2.5,0,0,0,0,0
5.226,2.875,0,0,0,0,0
5.227,2.9375,0,0,0,0,0
5.228,3.0625,0,0,0,0,0
5.229,3.5625,0,0,0,0,0
5.23,3,0,0,0,0,0
5.231,3.25,0,0,0,0,0
5.232,3.5,0,0,1,0,0
5.233,4.1875,0,0,0,0,0
5.234,3.5625,0,0,0,0,0
5.235,3.4375,0,0,0,0,0
5.236,3.4375,0,0,0,0,0
5.237,3.4375,0,0,0,0,0
5.238,3.3125,0,0,0,0,0
5.239,2.625,0,0,0,0,0
5.24,0.75,0,0,0,0,0
5.241,0,0,0,0,0,0
5.242,0.8125,0,0,0,0,0
5.243,0.75,0,0,0,0,0
5.244,1.375,0,0,0,0,0
5.245,2.1875,0,0,0,0,0
5.246,2.75,0,0,0,0,0
5.247,2.8125,0,0,0,0,0
5.248,2.375,0,0,0,0,0
5.249,2.625,0,0,0,0,0
5.25,2.875,0,0,0,0,0
5.251,2.5,0,0,0,0,0
5.252,2.5,0,0,0,0,0
5.253,2.5,0,0,0,0,0
5.254,2.625,0,0,0,0,0
5.255,3.75,0,0,0,0,0
5.256,3.375,0,0,0,0,0
5.257,3.75,0,0,0,0,0
5.258,4.125,0,0,0,0,0
5.259,4.1875,0,0,0,0,0
5.26,3.9375,0,0,0,0,0
5.261,4.375,0,0,0,0,0
5.262,4.5,0,0,0,0,0
5.263,5.125,0,0,0,0,0
5.264,4.1875,0,0,0,0,0
5.265,3.75,0,0,0,0,0
5.266,3.5625,0,0,0,0,0
5.267,3.4375,0,0,0,0,0
5.268,3.4375,0,0,0,0,0
5.269,3.25,0,0,0,0,0
5.27,3.875,0,0,0,0,0
5.271,3.5625,0,0,0,0,0
5.272,3.1875,0,0,0,0,0
5.273,3.25,0,0,0,0,0
5.274,3.5625,0,0,0,0,0
5.275,3.75,0,0,0,0,0
5.276,3.25,0,0,0,0,0
5.277,2.8125,0,0,0,0,0
5.278,2.5625,0,0,0,0,0
5.279,2,0,0,0,0,0
5.28,2.3125,0,0,0,0,0
5.281,2,0,0,0,0,0
5.282,1.375,0,0,0,0,0
5.283,2,0,0,0,0,0
5.284,2.3125,0,0,0,0,0
5.285,2.625,0,0,0,0,0
5.286,2.3125,0,0,0,0,0
5.287,2,0,0,0,0,0
5.288,2,0,0,0,0,0
5.289,1.25,0,0,0,0,0
5.29,2.375,0,0,0,0,0
5.291,2.9375,0,0,0,0,0
5.292,3.625,0,0,0,0,0
5.293,4.1875,0,0,0,0,0
5.294,4,0,0,0,0,0
5.295,4.6875,0,0,0,0,0
5.296,4.875,0,0,0,0,0
5.297,5,0,0,0,0,0
5.298,5.0625,0,0,0,0,0
5.299,5.3125,0,0,0,0,0
5.3,4.625,0,0,0,0,0
5.301,3.5625,0,0,0,0,0
5.302,3.5625,0,0,0,0,0
5.303,3.5625,0,0,0,0,0
5.304,4.125,0,0,0,0,0
5.305,4.0625,0,0,0,0,0
5.306,4.0625,0,0,0,0,0
5.307,3.875,0,0,0,0,0
5.308,4.3125,0,0,0,0,0
5.309,5,0,0,0,0,0
5.31,5.6875,0,0,0,0,0
5.311,6.375,0,0,0,0,0
5.312,5.875,0,0,0,0,0
5.313,5.75,0,0,0,0,0
5.314,4.6875,0,0,0,0,0
5.315,4.1875,0,0,0,0,0
5.316,4.375,0,0,0,0,0
5.317,4.1875,0,0,0,0,0
5.318,4.5,0,0,0,0,0
5.319,5.3125,0,0,0,0,0
5.32,5.4375,0,0,0,0,0
5.321,6.6875,0,0,0,0,0
5.322,6.4375,0,0,0,0,0
5.323,6.5625,0,0,0,0,0
5.324,6.75,0,0,0,0,0
5.325,6.6875,0,0,0,0,0
5.326,6,0,0,0,0,0
5.327,6.5625,0,0,0,0,0
5.328,6,0,0,0,0,0
5.329,5.625,0,0,0,0,0
5.33,5.4375,0,0,0,0,0
5.331,5.4375,0,0,0,0,0
5.332,5.6875,0,0,0,0,0
5.333,5.625,0,0,0,0,0
5.334,5.5,0,0,0,0,0
5.335,5.625,0,0,0,0,0
5.336,5.375,0,0,0,0,0
5.337,5.125,0,0,0,0,0
5.338,5.0625,0,0,0,0,0
5.339,4.6875,0,0,0,0,0
5.34,4.75,0,0,0,0,0
5.341,4.6875,0,0,0,0,0
5.342,4.6875,0,0,0,0,0
5.343,4.1875,0,0,0,0,0
5.344,4.1875,0,0,0,0,0
5.345,3.875,0,0,0,0,0
5.346,5.25,0,0,0,0,0
5.347,6.5625,0,0,0,0,0
5.348,6.4375,0,0,0,0,0
5.349,5.75,0,0,0,0,0
5.35,6.0625,0,0,0,0,0
5.351,6.6875,0,0,0,0,0
5.352,7.3125,0,0,0,0,0
5.353,8.25,0,0,0,0,0
5.354,8.3125,0,0,0,0,0
5.355,7.9375,0,0,0,0,0
5.356,8.25,0,0,0,0,0
5.357,7.625,0,0,0,0,0
5.358,8.25,0,0,0,0,0
5.359,7.8125,0,0,0,0,0
5.36,7.4375,0,0,0,0,0
5.361,6.5625,0,0,0,0,0
5.362,7.1875,0,0,0,0,0
5.363,7.5,0,0,0,0,0
5.364,7.9375,0,0,0,0,0
5.365,7.5,0,0,0,0,0
5.366,7.5625,0,0,0,0,0
5.367,7.625,0,0,0,0,0
5.368,7.375,0,0,0,0,0
5.369,7.5,0,0,0,0,0
5.37,7.1875,0,0,0,0,0
5.371,7,0,0,0,0,0
5.372,7.3125,0,0,0,0,0
5.373,7.1875,0,0,0,0,0
5.374,7.25,0,0,0,0,0
5.375,7.3125,0,0,0,0,0
5.376,7.25,0,0,0,0,0
5.377,7.5,0,0,0,0,0
5.378,8.3125,0,0,0,0,0
5.379,8.875,0,0,0,0,0
5.38,9.1875,0,0,0,0,0
5.381,9.375,0,0,0,0,0
5.382,9.0625,0,0,0,0,0
5.383,8.4375,0,0,0,0,0
5.384,8.4375,0,0,0,0,0
5.385,8.125,0,0,0,0,0
5.386,8.25,0,0,0,0,0
5.387,8.5625,0,0,0,0,0
5.388,9.25,0,0,0,0,0
5.389,9.0625,0,0,0,0,0
5.39,8.75,0,0,0,0,0
5.391,9.375,0,0,0,0,0
5.392,9.5625,0,0,0,0,0
5.393,10.313,0,0,0,0,0
5.394,9.625,0,0,0,0,0
5.395,9.0625,0,0,0,0,0
5.396,9.0625,0,0,0,0,0
5.397,8.875,0,0,0,0,0
5.398,8.5,0,0,0,0,0
5.399,8.4375,0,0,0,0,0
5.4,9.0625,0,0,0,0,0
5.401,9.6875,0,0,0,0,0
5.402,10.5,0,0,0,0,0
5.403,11.563,0,0,0,0,0
5.404,11.313,0,0,0,0,0
5.405,11.25,0,0,0,0,0
5.406,11.25,0,0,0,0,0
5.407,10.938,0,0,0,0,0
5.408,10.5,0,0,0,0,0
5.409,10.938,0,0,0,0,0
5.41,11.438,0,0,0,0,0
5.411,11.25,0,0,0,0,0
5.412,10.375,0,0,0,0,0
5.413,10.75,0,0,0,0,0
5.414,10.688,0,0,0,0,0
5.415,11.375,0,0,0,0,0
5.416,11.625,0,0,0,0,0
5.417,11.875,0,0,0,0,0
5.418,11.875,0,0,0,0,0
5.419,12.313,0,0,0,0,0
5.42,11.625,0,0,0,0,0
