0,1.125,0,0,0,0,0
0.001,0.9375,0,0,0,0,0
0.002,0.75,0,0,0,0,0
0.003,0.4375,0,0,0,0,0
0.004,0.375,0,0,0,0,0
0.005,0.3125,0,0,0,0,0
0.006,0,0,0,0,0,0
0.007,-0.3125,0,0,0,0,0
0.008,-0.25,0,0,0,0,0
0.009,-0.1875,0,0,0,0,0
0.01,-0.375,0,0,0,0,0
0.011,-0.5,0,0,0,0,0
0.012,0,0,0,0,0,0
0.013,0.4375,0,0,0,0,0
0.014,0.3125,0,0,0,0,0
0.015,0.125,0,0,0,0,0
0.016,0.1875,0,0,0,0,0
0.017,0.3125,0,0,0,0,0
0.018,0.875,0,0,0,0,0
0.019,1.5625,0,0,0,0,0
0.02,1.3125,0,0,0,0,0
0.021,1.0625,0,0,0,0,0
0.022,0.875,0,0,0,0,0
0.023,0.625,0,0,0,0,0
0.024,0.3125,0,0,0,0,0
0.025,0,0,0,0,0,0
0.026,0.125,0,0,0,0,0
0.027,0.3125,0,0,0,0,0
0.028,0.0625,0,0,0,0,0
0.029,-0.1875,0,0,0,0,0
0.03,-0.25,0,0,0,0,0
0.031,-0.3125,0,0,0,0,0
0.032,-0.25,0,0,0,0,0
0.033,-0.1875,0,0,0,0,0
0.034,-0.3125,0,0,0,0,0
0.035,-0.5,0,0,0,0,0
0.036,-0.5,0,0,0,0,0
0.037,-0.5,0,0,0,0,0
0.038,0.0625,0,0,0,0,0
0.039,0.625,0,0,0,0,0
0.04,0.75,0,0,0,0,0
0.041,0.9375,0,0,0,0,0
0.042,0.5,0,0,0,0,0
0.043,0,0,0,0,0,0
0.044,-0.3125,0,0,0,0,0
0.045,-0.625,0,0,0,0,0
0.046,-0.5625,0,0,0,0,0
0.047,-0.5,0,0,0,0,0
0.048,-0.6875,0,0,0,0,0
0.049,-0.8125,0,0,0,0,0
0.05,-0.75,0,0,0,0,0
0.051,-0.625,0,0,0,0,0
0.052,-0.625,0,0,0,0,0
0.053,-0.625,0,0,0,0,0
0.054,-0.375,0,0,0,0,0
0.055,-0.1875,0,0,0,0,0
0.056,-0.1875,0,0,0,0,0
0.057,-0.1875,0,0,0,0,0
0.058,0.1875,0,0,0,0,0
0.059,0.625,0,0,0,0,0
0.06,0.8125,0,0,0,0,0
0.061,1.0625,0,0,0,0,0
0.062,0.9375,0,0,0,0,0
0.063,0.75,0,0,0,0,0
0.064,0.3125,0,0,0,0,0
0.065,-0.1875,0,0,0,0,0
0.066,-0.25,0,0,0,0,0
0.067,-0.3125,0,0,0,0,0
0.068,-0.25,0,0,0,0,0
0.069,-0.1875,0,0,0,0,0
0.07,-0.1875,0,0,0,0,0
0.071,-0.1875,0,0,0,0,0
0.072,0.375,0,0,0,0,0
0.073,0.9375,0,0,0,0,0
0.074,1,0,0,0,0,0
0.075,1.0625,0,0,0,0,0
0.076,0.875,0,0,0,0,0
0.077,0.625,0,0,0,0,0
0.078,0.875,0,0,0,0,0
0.079,1.0625,0,0,0,0,0
0.08,1,0,0,0,0,0
0.081,0.9375,0,0,0,0,0
0.082,0.5,0,0,0,0,0
0.083,0.125,0,0,0,0,0
0.084,-0.3125,0,0,0,0,0
0.085,-0.8125,0,0,0,0,0
0.086,-1.1875,0,0,0,0,0
0.087,-1.5625,0,0,0,0,0
0.088,-1.875,0,0,0,0,0
0.089,-2.1875,0,0,0,0,0
0.09,-1.6875,0,0,0,0,0
0.091,-1.125,0,0,0,0,0
0.092,-0.9375,0,0,0,0,0
0.093,-0.625,0,0,0,0,0
0.094,-0.6875,0,0,0,0,0
0.095,-0.625,0,0,0,0,0
0.096,-0.75,0,0,0,0,0
0.097,-0.9375,0,0,0,0,0
0.098,-0.3125,0,0,0,0,0
0.099,0.3125,0,0,0,0,0
0.1,0.5625,0,0,0,0,0
0.101,0.75,0,0,0,0,0
0.102,0.5,0,0,0,0,0
0.103,0.125,0,0,0,0,0
0.104,0,0,0,0,0,0
0.105,-0.1875,0,0,0,0,0
0.106,0.0625,0,0,0,0,0
0.107,0.3125,0,0,0,0,0
0.108,0,0,0,0,0,0
0.109,-0.3125,0,0,0,0,0
0.11,-0.4375,0,0,0,0,0
0.111,-0.625,0,0,0,0,0
0.112,-0.5,0,0,0,0,0
0.113,-0.3125,0,0,0,0,0
0.114,-0.3125,0,0,0,0,0
0.115,-0.3125,0,0,0,0,0
0.116,-0.6875,0,0,0,0,0
0.117,-1.125,0,0,0,0,0
0.118,-1.25,0,0,0,0,0
0.119,-1.4375,0,0,0,0,0
0.12,-1.25,0,0,0,0,0
0.121,-1.125,0,0,0,0,0
0.122,-0.875,0,0,0,0,0
0.123,-0.625,0,0,0,0,0
0.124,-0.5625,0,0,0,0,0
0.125,-0.5,0,0,0,0,0
0.126,-0.875,0,0,0,0,0
0.127,-1.25,0,0,0,0,0
0.128,-0.875,0,0,0,0,0
0.129,-0.5,0,0,0,0,0
0.13,-0.375,0,0,0,0,0
0.131,-0.3125,0,0,0,0,0
0.132,-0.375,0,0,0,0,0
0.133,-0.3125,0,0,0,0,0
0.134,-0.5,0,0,0,0,0
0.135,-0.625,0,0,0,0,0
0.136,-1.125,0,0,0,0,0
0.137,-1.5625,0,0,0,0,0
0.138,-1.75,0,0,0,0,0
0.139,-1.875,0,0,0,0,0
0.14,-1.9375,0,0,0,0,0
0.141,-2.0625,0,0,0,0,0
0.142,-2.375,0,0,0,0,0
0.143,-2.6875,0,0,0,0,0
0.144,-2.3125,0,0,0,0,0
0.145,-1.875,0,0,0,0,0
0.146,-1.4375,0,0,0,0,0
0.147,-0.9375,0,0,0,0,0
0.148,-1,0,0,0,0,0
0.149,-0.9375,0,0,0,0,0
0.15,-1.3125,0,0,0,0,0
0.151,-1.75,0,0,0,0,0
0.152,-1.625,0,0,0,0,0
0.153,-1.4375,0,0,0,0,0
0.154,-1.3125,0,0,0,0,0
0.155,-1.125,0,0,0,0,0
0.156,-1.125,0,0,0,0,0
0.157,-1.125,0,0,0,0,0
0.158,-1.6875,0,0,0,0,0
0.159,-2.1875,0,0,0,0,0
0.16,-2.1875,0,0,0,0,0
0.161,-2.1875,0,0,0,0,0
0.162,-2.1875,0,0,0,0,0
0.163,-2.1875,0,0,0,0,0
0.164,-2.375,0,0,0,0,0
0.165,-2.5,0,0,0,0,0
0.166,-2.5625,0,0,0,0,0
0.167,-2.6875,0,0,0,0,0
0.168,-3.0625,0,0,0,0,0
0.169,-3.4375,0,0,0,0,0
0.17,-3.5625,0,0,0,0,0
0.171,-3.75,0,0,0,0,0
0.172,-4,0,0,0,0,0
0.173,-4.25,0,0,0,0,0
0.174,-4.1875,0,0,0,0,0
0.175,-4.0625,0,0,0,0,0
0.176,-4,0,0,0,0,0
0.177,-3.9375,0,0,0,0,0
0.178,-3.1875,0,0,0,0,0
0.179,-2.375,0,0,0,1,0
0.18,-2.125,0,0,0,0,0
0.181,-1.875,0,0,0,0,0
0.182,-1.8125,0,0,0,0,0
0.183,-1.75,0,0,0,0,0
0.184,-2.1875,0,0,0,0,0
0.185,-2.6875,0,0,0,0,0
0.186,-2.5625,0,0,0,0,0
0.187,-2.375,0,0,0,0,0
0.188,-2.375,0,0,0,0,0
0.189,-2.375,0,0,0,0,0
0.19,-2.75,0,0,0,0,0
0.191,-3.125,0,0,0,0,0
0.192,-3.125,0,0,0,0,0
0.193,-3.125,0,0,0,0,0
0.194,-3,0,0,0,0,0
0.195,-2.8125,0,0,0,0,0
0.196,-2.6875,0,0,0,0,0
0.197,-2.5,0,0,0,0,0
0.198,-2.125,0,0,0,0,0
0.199,-1.75,0,0,0,0,0
0.2,-1.75,0,0,0,0,0
0.201,-1.75,0,0,0,0,0
0.202,-1.625,0,0,0,0,0
0.203,-1.5625,0,0,0,0,0
0.204,-1.8125,0,0,0,0,0
0.205,-2.0625,0,0,0,0,0
0.206,-1.9375,0,0,0,0,0
0.207,-1.75,0,0,0,0,0
0.208,-1.1875,0,0,0,0,0
0.209,-0.625,0,0,0,0,0
0.21,-0.6875,0,0,0,0,0
0.211,-0.8125,0,0,0,0,0
0.212,-0.1875,0,0,0,0,0
0.213,0.4375,0,0,0,0,0
0.214,0.625,0,0,0,0,0
0.215,0.75,0,0,0,0,0
0.216,0.9375,0,0,0,0,0
0.217,1.0625,0,0,0,0,0
0.218,1.1875,0,0,0,0,0
0.219,1.25,0,0,0,0,0
0.22,1.25,0,0,0,0,0
0.221,1.25,0,0,0,0,0
0.222,0.875,0,0,0,0,0
0.223,0.4375,0,0,0,0,0
0.224,0.1875,0,0,0,0,0
0.225,-0.1875,0,0,0,0,0
0.226,0.1875,0,0,0,0,0
0.227,0.625,0,0,0,0,0
0.228,0.9375,0,0,0,0,0
0.229,1.25,0,0,0,0,0
0.23,1.5625,0,0,0,0,0
0.231,1.875,0,0,0,0,0
0.232,2.5,0,0,0,0,0
0.233,3.125,0,0,0,0,0
0.234,2.8125,0,0,0,0,0
0.235,2.5,0,0,0,0,0
0.236,2.25,0,0,0,0,0
0.237,2,0,0,0,0,0
0.238,1.625,0,0,0,0,0
0.239,1.25,0,0,0,0,0
0.24,1.9375,0,0,0,0,0
0.241,2.625,0,0,0,0,0
0.242,2.6875,0,0,0,0,0
0.243,2.8125,0,0,0,0,0
0.244,3.0625,0,0,0,0,0
0.245,3.4375,0,0,0,0,0
0.246,3.5,0,0,0,0,0
0.247,3.5625,0,0,0,0,0
0.248,2.8125,0,0,0,0,0
0.249,2,0,0,0,0,0
0.25,2,0,0,0,0,0
0.251,2,0,0,0,0,0
0.252,1.6875,0,0,0,0,0
0.253,1.375,0,0,0,0,0
0.254,1.375,0,0,0,0,0
0.255,1.375,0,0,0,0,0
0.256,1.1875,0,0,0,0,0
0.257,0.9375,0,0,0,0,0
0.258,1.1875,0,0,0,0,0
0.259,1.375,0,0,0,0,0
0.26,1.3125,0,0,0,0,0
0.261,1.25,0,0,0,0,0
0.262,1.4375,0,0,0,0,0
0.263,1.5625,0,0,0,0,0
0.264,1.875,0,0,0,0,0
0.265,2.1875,0,0,0,0,0
0.266,2.375,0,0,0,0,0
0.267,2.625,0,0,0,0,0
0.268,2.875,0,0,0,0,0
0.269,3.125,0,0,0,0,0
0.27,2.8125,0,0,0,0,0
0.271,2.5,0,0,0,0,0
0.272,2.1875,0,0,0,0,0
0.273,1.875,0,0,0,0,0
0.274,1.5625,0,0,0,0,0
0.275,1.25,0,0,0,0,0
0.276,1.0625,0,0,0,0,0
0.277,0.9375,0,0,0,0,0
0.278,1.375,0,0,0,0,0
0.279,1.875,0,0,0,0,0
0.28,2.1875,0,0,0,0,0
0.281,2.5,0,0,0,0,0
0.282,2.875,0,0,0,0,0
0.283,3.25,0,0,0,0,0
0.284,3,0,0,0,0,0
0.285,2.625,0,0,0,0,0
0.286,2.375,0,0,0,0,0
0.287,2,0,0,0,0,0
0.288,1.75,0,0,0,0,0
0.289,1.5625,0,0,0,0,0
0.29,1.5625,0,0,0,0,0
0.291,1.5625,0,0,0,0,0
0.292,1.375,0,0,0,0,0
0.293,1.25,0,0,0,0,0
0.294,1.1875,0,0,0,0,0
0.295,1.0625,0,0,0,0,0
0.296,1.1875,0,0,0,0,0
0.297,1.375,0,0,0,0,0
0.298,1.3125,0,0,0,0,0
0.299,1.25,0,0,0,0,0
0.3,1.375,0,0,0,0,0
0.301,1.5625,0,0,0,0,0
0.302,1.4375,0,0,0,0,0
0.303,1.25,0,0,0,0,0
0.304,1.1875,0,0,0,0,0
0.305,1.0625,0,0,0,0,0
0.306,1.3125,0,0,0,0,0
0.307,1.5625,0,0,0,0,0
0.308,1.75,0,0,0,0,0
0.309,2,0,0,0,0,0
0.31,2.3125,0,0,0,0,0
0.311,2.625,0,0,0,0,0
0.312,2.25,0,0,0,0,0
0.313,1.875,0,0,0,0,0
0.314,1.5625,0,0,0,0,0
0.315,1.25,0,0,0,0,0
0.316,1.1875,0,0,0,0,0
0.317,1.0625,0,0,0,0,0
0.318,1.0625,0,0,0,0,0
0.319,1.0625,0,0,0,0,0
0.32,1.1875,0,0,0,0,0
0.321,1.375,0,0,0,0,0
0.322,1.4375,0,0,0,0,0
0.323,1.375,0,0,0,0,0
0.324,1.3125,0,0,0,0,0
0.325,1.25,0,0,0,0,0
0.326,0.9375,0,0,0,0,0
0.327,0.625,0,0,0,0,0
0.328,0.625,0,0,0,0,0
0.329,0.625,0,0,0,0,0
0.33,1.375,0,0,0,0,0
0.331,2.1875,0,0,0,0,0
0.332,2.3125,0,0,0,0,0
0.333,2.5,0,0,0,0,0
0.334,2.375,0,0,0,0,0
0.335,2.1875,0,0,0,0,0
0.336,1.9375,0,0,0,0,0
0.337,1.6875,0,0,0,0,0
0.338,2.0625,0,0,0,0,0
0.339,2.5,0,0,0,0,0
0.34,2.125,0,0,0,0,0
0.341,1.6875,0,0,0,0,0
0.342,1.3125,0,0,0,0,0
0.343,0.9375,0,0,0,0,0
0.344,1.125,0,0,0,0,0
0.345,1.25,0,0,0,0,0
0.346,1.125,0,0,0,0,0
0.347,1.0625,0,0,0,0,0
0.348,0.75,0,0,0,0,0
0.349,0.4375,0,0,0,0,0
0.35,0.3125,0,0,0,0,0
0.351,0.125,0,0,0,0,0
0.352,0.125,0,0,0,0,0
0.353,0.125,0,0,0,0,0
0.354,0.25,0,0,0,0,0
0.355,0.4375,0,0,0,0,0
0.356,0.5625,0,0,0,0,0
0.357,0.75,0,0,0,0,0
0.358,0.875,0,0,0,0,0
0.359,1.0625,0,0,0,0,1
0.36,1.125,0,0,0,0,0
0.361,1.25,0,0,0,0,0
0.362,1.25,0,0,0,0,0
0.363,1.25,0,0,0,0,0
0.364,1.3125,0,0,0,0,0
0.365,1.375,0,0,0,0,0
0.366,1.5625,0,0,0,0,0
0.367,1.6875,0,0,0,0,0
0.368,1.75,0,0,0,0,0
0.369,1.875,0,0,0,0,0
0.37,1.9375,0,0,0,0,0
0.371,2,0,0,0,0,0
0.372,1.6875,0,0,0,0,0
0.373,1.375,0,0,0,0,0
0.374,1.25,0,0,0,0,0
0.375,1.0625,0,0,0,0,0
0.376,0.5,0,0,0,0,0
0.377,0,0,0,0,0,0
0.378,0.125,0,0,0,0,0
0.379,0.3125,0,0,0,0,0
0.38,0.25,0,0,0,0,0
0.381,0.125,0,0,0,0,0
0.382,-0.25,0,0,0,0,0
0.383,-0.625,0,0,0,0,0
0.384,-0.75,0,0,0,0,0
0.385,-0.8125,0,0,0,0,0
0.386,-0.5,0,0,0,0,0
0.387,-0.1875,0,0,0,0,0
0.388,-0.25,0,0,0,0,0
0.389,-0.3125,0,0,0,0,0
0.39,-0.1875,0,0,0,0,0
0.391,0,0,0,0,0,0
0.392,0.5,0,0,0,0,0
0.393,0.4375,0,0,0,0,0
0.394,0.1875,0,0,0,0,0
0.395,0.4375,0,0,0,0,0
0.396,0.1875,0,0,0,0,0
0.397,0.4375,0,0,0,0,0
0.398,0.5,0,0,0,0,0
0.399,0.4375,0,0,0,0,0
0.4,1.0625,0,0,0,0,0
0.401,0.9375,0,0,0,0,0
0.402,1.25,0,0,0,0,0
0.403,1.0625,0,0,0,0,0
0.404,1.6875,0,0,0,0,0
0.405,2.5,0,0,0,0,0
0.406,1.75,0,0,0,0,0
0.407,1.6875,0,0,0,0,0
0.408,1.6875,0,0,0,0,0
0.409,0.625,0,0,0,0,0
0.41,0.5625,0,0,0,0,0
0.411,0.9375,0,0,0,0,0
0.412,1.0625,0,0,0,0,0
0.413,1.25,0,0,0,0,0
0.414,1.5625,0,0,0,0,0
0.415,2.1875,0,0,0,0,0
0.416,1.25,0,0,0,0,0
0.417,1.0625,0,0,0,0,0
0.418,0.9375,0,0,0,0,0
0.419,0.625,0,0,0,0,0
0.42,0.5625,0,0,0,0,0
0.421,0.625,0,0,0,0,0
0.422,-0.3125,0,0,0,0,0
0.423,-1.125,0,0,0,0,0
0.424,-1.5625,0,0,0,0,0
0.425,-1.5625,0,0,0,0,0
0.426,-1.125,0,0,0,0,0
0.427,-0.9375,0,0,0,0,0
0.428,-0.875,0,0,0,0,0
0.429,-0.625,0,0,0,0,0
0.43,-0.3125,0,0,0,0,0
0.431,0.125,0,0,0,0,0
0.432,0.4375,0,0,0,0,0
0.433,1.25,0,0,0,0,0
0.434,1.1875,0,0,0,0,0
0.435,1.25,0,0,0,0,0
0.436,-0.0625,0,0,0,0,0
0.437,-0.3125,0,0,0,0,0
0.438,0.375,0,0,0,0,0
0.439,0.75,0,0,0,0,0
0.44,0.8125,0,0,0,0,0
0.441,0.75,0,0,0,0,0
0.442,1,0,0,0,0,0
0.443,1.375,0,0,0,0,0
0.444,1,0,0,0,0,0
0.445,0.9375,0,0,0,0,0
0.446,0.3125,0,0,0,0,0
0.447,0.4375,0,0,0,0,0
0.448,1.25,0,0,0,0,0
0.449,1.875,0,0,0,0,0
0.45,1.5625,0,0,0,0,0
0.451,1.875,0,0,0,0,0
0.452,2.5,0,0,0,0,0
0.453,2.625,0,0,0,0,0
0.454,2.5625,0,0,0,0,0
0.455,2.5,0,0,0,0,0
0.456,1.6875,0,0,0,0,0
0.457,1.0625,0,0,0,0,0
0.458,1.125,0,0,0,0,0
0.459,0.9375,0,0,0,0,0
0.46,0.625,0,0,0,0,0
0.461,0.125,0,0,0,0,0
0.462,0.375,0,0,0,0,0
0.463,0.3125,0,0,0,0,0
0.464,0.5,0,0,0,0,0
0.465,1.375,0,0,0,0,0
0.466,1.1875,0,0,0,0,0
0.467,1.5625,0,0,0,0,0
0.468,2.5,0,0,0,0,0
0.469,2.625,0,0,0,0,0
0.47,1.75,0,0,0,0,0
0.471,1.25,0,0,0,0,0
0.472,1,0,0,0,0,0
0.473,0.4375,0,0,0,0,0
0.474,0.4375,0,0,0,0,0
0.475,0.625,0,0,0,0,0
0.476,0.75,0,0,0,0,0
0.477,0.75,0,0,0,0,0
0.478,0.25,0,0,0,0,0
0.479,0,0,0,0,0,0
0.48,0.4375,0,0,0,0,0
0.481,0.4375,0,0,0,0,0
0.482,0.6875,0,0,0,0,0
0.483,0.625,0,0,0,0,0
0.484,0.625,0,0,0,0,0
0.485,0.4375,0,0,0,0,0
0.486,0.4375,0,0,0,0,0
0.487,0.75,0,0,0,0,0
0.488,0.875,0,0,0,0,0
0.489,1.25,0,0,0,0,0
0.49,1.1875,0,0,0,0,0
0.491,1.0625,0,0,0,0,0
0.492,2.625,0,0,0,0,0
0.493,2.625,0,0,0,0,0
0.494,1.8125,0,0,0,0,0
0.495,1.5625,0,0,0,0,0
0.496,1.6875,0,0,0,0,0
0.497,1.375,0,0,0,0,0
0.498,0.8125,0,0,0,0,0
0.499,0.625,0,0,0,0,0
0.5,0.4375,0,0,0,0,0
0.501,0.625,0,0,0,0,0
0.502,0.5625,0,0,0,0,0
0.503,0.625,0,0,0,0,0
0.504,0.6875,0,0,0,0,0
0.505,0.625,0,0,0,0,0
0.506,0.9375,0,0,0,0,0
0.507,1.25,0,0,0,0,0
0.508,1.25,0,0,0,0,0
0.509,1.0625,0,0,0,0,0
0.51,0.5625,0,0,0,0,0
0.511,0.3125,0,0,0,0,0
0.512,0.5625,0,0,0,0,0
0.513,0.625,0,0,0,0,0
0.514,0.5625,0,0,0,0,0
0.515,1.25,0,0,0,0,0
0.516,0.8125,0,0,0,0,0
0.517,0.625,0,0,0,0,0
0.518,0.625,0,0,0,0,0
0.519,0.125,0,0,0,0,0
0.52,0.375,0,0,0,0,0
0.521,0.3125,0,0,0,0,0
0.522,0.625,0,0,0,0,0
0.523,0.625,0,0,0,0,0
0.524,-0.0625,0,0,0,0,0
0.525,0,0,0,0,0,0
0.526,0.9375,0,0,0,0,0
0.527,1.375,0,0,0,0,0
0.528,1.6875,0,0,0,0,0
0.529,1.375,0,0,0,0,0
0.53,1.125,0,0,0,0,0
0.531,1.25,0,0,0,0,0
0.532,0.9375,0,0,0,0,0
0.533,0.75,0,0,0,0,0
0.534,0.875,0,0,0,0,0
0.535,1.0625,0,0,0,0,0
0.536,0.5,0,0,0,0,0
0.537,1.0625,0,0,0,0,0
0.538,1.625,0,0,0,0,0
0.539,1.875,0,0,0,0,0
0.54,2.5,0,0,0,0,0
0.541,2.5,0,0,0,0,0
0.542,1.875,0,0,0,0,0
0.543,0.9375,0,0,0,0,0
0.544,1.125,0,0,0,0,0
0.545,1.6875,0,0,0,0,0
0.546,2.4375,0,0,0,0,0
0.547,2.9375,0,0,0,0,0
0.548,2.5,0,0,0,0,0
0.549,2.5,0,0,0,0,0
0.55,2.375,0,0,0,0,0
0.551,1.875,0,0,0,0,0
0.552,1.75,0,0,0,0,0
0.553,1.0625,0,0,0,0,0
0.554,0.6875,0,0,0,0,0
0.555,-0.5,0,0,0,0,0
0.556,-0.9375,0,0,0,0,0
0.557,-1.125,0,0,0,0,0
0.558,-0.875,0,0,0,0,0
0.559,-0.5,0,0,0,0,0
0.56,0.125,0,0,0,0,0
0.561,0.75,0,0,0,0,0
0.562,0.75,0,0,0,0,0
0.563,0.3125,0,0,0,0,0
0.564,0.1875,0,0,0,0,0
0.565,0.3125,0,0,0,0,0
0.566,0.375,0,0,0,0,0
0.567,0.3125,0,0,0,0,0
0.568,0.9375,0,0,0,0,0
0.569,0.75,0,0,0,0,0
0.57,0.8125,0,0,0,0,0
0.571,0.625,0,0,0,0,0
0.572,0.3125,0,0,0,0,0
0.573,0.4375,0,0,0,0,0
0.574,0.5625,0,0,0,0,0
0.575,0.4375,0,0,0,0,0
0.576,0.875,0,0,0,0,0
0.577,1.375,0,0,0,0,0
0.578,1.9375,0,0,0,0,0
0.579,1.875,0,0,0,0,0
0.58,1.5625,0,0,0,0,0
0.581,1.875,0,0,0,0,0
0.582,2.0625,0,0,0,0,0
0.583,1.5625,0,0,0,0,0
0.584,1.25,0,0,0,0,0
0.585,1.0625,0,0,0,0,0
0.586,1.3125,0,0,0,0,0
0.587,1.0625,0,0,0,0,0
0.588,0.8125,0,0,0,0,0
0.589,1.0625,0,0,0,0,0
0.59,1.25,0,0,0,0,0
0.591,1.25,0,0,0,0,0
0.592,1.1875,0,0,0,0,0
0.593,1.375,0,0,0,0,0
0.594,1.5,0,0,0,0,0
0.595,1.5625,0,0,0,0,0
0.596,1.1875,0,0,0,0,0
0.597,0.9375,0,0,0,0,0
0.598,0.9375,0,0,0,0,0
0.599,0.9375,0,0,0,0,0
0.6,0.625,0,0,0,0,0
0.601,0.75,0,0,0,0,0
0.602,0.75,0,0,0,0,0
0.603,0.9375,0,0,0,0,0
0.604,1.5625,0,0,0,0,0
0.605,1.875,0,0,0,0,0
0.606,2.25,0,0,0,0,0
0.607,2.5,0,0,0,0,0
0.608,2.6875,0,0,0,0,0
0.609,2,0,0,0,0,0
0.61,1.875,0,0,0,0,0
0.611,1.375,0,0,0,0,0
0.612,1.1875,0,0,0,0,0
0.613,1.6875,0,0,0,0,0
0.614,1.3125,0,0,0,0,0
0.615,1.375,0,0,0,0,0
0.616,1,0,0,0,0,0
0.617,1.0625,0,0,0,0,0
0.618,0.5,0,0,0,0,0
0.619,0.625,0,0,0,0,0
0.62,0.4375,0,0,0,0,0
0.621,0,0,0,0,0,0
0.622,0.4375,0,0,0,0,0
0.623,0.75,0,0,0,0,0
0.624,0.8125,0,0,0,0,0
0.625,1.0625,0,0,0,0,0
0.626,1.375,0,0,0,0,0
0.627,1.6875,0,0,0,0,0
0.628,1.4375,0,0,0,0,0
0.629,1.375,0,0,0,0,0
0.63,1.0625,0,0,0,0,0
0.631,1.0625,0,0,0,0,0
0.632,0.75,0,0,0,0,0
0.633,0.4375,0,0,0,0,0
0.634,0.9375,0,0,0,0,0
0.635,0.3125,0,0,0,0,0
0.636,0.125,0,0,0,0,0
0.637,0.4375,0,0,0,0,0
0.638,1.0625,0,0,0,0,0
0.639,1.5625,0,0,0,0,0
0.64,1.625,0,0,0,0,0
0.641,1.5625,0,0,0,0,0
0.642,1.5,0,0,0,0,0
0.643,1.375,0,0,0,0,0
0.644,1.1875,0,0,0,0,0
0.645,0.625,0,0,0,0,0
0.646,0.1875,0,0,0,0,0
0.647,0,0,0,0,0,0
0.648,-0.125,0,0,0,0,0
0.649,0.3125,0,0,0,0,0
0.65,0.3125,0,0,0,0,0
0.651,0.9375,0,0,0,0,0
0.652,1.75,0,0,0,0,0
0.653,1.6875,0,0,0,0,0
0.654,1.5625,0,0,0,0,0
0.655,1.25,0,0,0,0,0
0.656,1.9375,0,0,0,0,0
0.657,2.3125,0,0,0,0,0
0.658,2.3125,0,0,0,0,0
0.659,2,0,0,0,0,0
0.66,3,0,0,0,0,0
0.661,2.8125,0,0,0,0,0
0.662,1.875,0,0,0,0,0
0.663,1.0625,0,0,0,0,0
0.664,1.6875,0,0,0,0,0
0.665,2.8125,0,0,0,0,0
0.666,2.9375,0,0,0,0,0
0.667,2.625,0,0,0,0,0
0.668,2,0,0,0,0,0
0.669,1.6875,0,0,0,0,0
0.67,1.3125,0,0,0,0,0
0.671,1.0625,0,0,0,0,0
0.672,1,0,0,0,0,0
0.673,0.9375,0,0,0,0,0
0.674,1,0,0,0,0,0
0.675,0.625,0,0,0,0,0
0.676,0.0625,0,0,0,0,0
0.677,-0.1875,0,0,0,0,0
0.678,0.25,0,0,0,0,0
0.679,0.3125,0,0,0,0,0
0.68,1,0,0,0,0,0
0.681,1.375,0,0,0,0,0
0.682,0.75,0,0,0,0,0
0.683,0.125,0,0,0,0,0
0.684,0.75,0,0,0,0,0
0.685,1.25,0,0,0,0,0
0.686,1.6875,0,0,0,0,0
0.687,1.875,0,0,0,0,0
0.688,2,0,0,0,0,0
0.689,1.5625,0,0,0,0,0
0.69,1.375,0,0,0,0,0
0.691,1.0625,0,0,0,0,0
0.692,1.375,0,0,0,0,0
0.693,1.6875,0,0,0,0,0
0.694,2.125,0,0,0,0,0
0.695,2.625,0,0,0,0,0
0.696,1.8125,0,0,0,0,0
0.697,1.875,0,0,0,0,0
0.698,2.0625,0,0,0,0,0
0.699,2.3125,0,0,0,0,0
0.7,2.125,0,0,0,0,0
0.701,1.5625,0,0,0,0,0
0.702,1.5,0,0,0,0,0
0.703,1.375,0,0,0,0,0
0.704,1.3125,0,0,0,0,0
0.705,1.875,0,0,0,0,0
0.706,2.6875,0,0,0,0,0
0.707,3.75,0,0,0,0,0
0.708,3.375,0,0,0,0,0
0.709,3.25,0,0,0,0,0
0.71,2.9375,0,0,0,0,0
0.711,3.5625,0,0,0,0,0
0.712,4.4375,0,0,0,0,0
0.713,5,0,0,0,0,0
0.714,4.1875,0,0,0,0,0
0.715,4.0625,0,0,0,0,0
0.716,3.9375,0,0,0,0,0
0.717,3.875,0,0,0,0,0
0.718,4.1875,0,0,0,0,0
0.719,4.0625,0,0,0,0,0
0.72,3.9375,0,0,0,0,0
0.721,3.875,0,0,0,0,0
0.722,3.125,0,0,0,0,0
0.723,2.8125,0,0,0,0,0
0.724,3.3125,0,0,0,0,0
0.725,3.25,0,0,0,0,0
0.726,3.375,0,0,0,0,0
0.727,3.125,0,0,0,0,0
0.728,3.125,0,0,0,0,0
0.729,2.9375,0,0,0,0,0
0.73,2.75,0,0,0,0,0
0.731,2.5,0,0,0,0,0
0.732,2.625,0,0,0,0,0
0.733,2.8125,0,0,0,0,0
0.734,2.4375,0,0,0,0,0
0.735,1.875,0,0,0,0,0
0.736,2,0,0,0,0,0
0.737,2.1875,0,0,0,0,0
0.738,1.75,0,0,0,0,0
0.739,2.1875,0,0,0,0,0
0.74,2.6875,0,0,0,0,0
0.741,2.8125,0,0,0,0,0
0.742,2,0,0,0,0,0
0.743,2.3125,0,0,0,0,0
0.744,2.25,0,0,0,0,0
0.745,2.5,0,0,0,0,0
0.746,3.5,0,0,0,0,0
0.747,3.875,0,0,0,0,0
0.748,3.75,0,0,0,0,0
0.749,3.875,0,0,0,0,0
0.75,3.8125,0,0,0,0,0
0.751,3.875,0,0,0,0,0
0.752,4,0,0,0,0,0
0.753,4.0625,0,0,0,0,0
0.754,4.3125,0,0,0,0,0
0.755,4.5,0,0,0,0,0
0.756,4.5625,0,0,0,0,0
0.757,4.375,0,0,0,0,0
0.758,4.3125,0,0,0,0,0
0.759,4.0625,0,0,0,0,0
0.76,3.9375,0,0,0,0,0
0.761,3.875,0,0,0,0,0
0.762,3,0,0,0,0,0
0.763,2,0,0,0,0,0
0.764,1.5,0,0,0,0,0
0.765,1.0625,0,0,0,0,0
0.766,0.4375,0,0,0,0,0
0.767,0.4375,0,0,0,0,0
0.768,-0.125,0,0,0,0,0
0.769,-0.9375,0,0,0,0,0
0.77,-0.625,0,0,0,0,0
0.771,-0.3125,0,0,0,0,0
0.772,-0.5,0,0,0,0,0
0.773,-0.1875,0,0,0,0,0
0.774,-0.0625,0,0,0,0,0
0.775,0.625,0,0,0,0,0
0.776,0.25,0,0,0,0,0
0.777,0.3125,0,0,0,0,0
0.778,0.625,0,0,0,0,0
0.779,0.9375,0,0,0,0,0
0.78,1.0625,0,0,0,0,0
0.781,0.9375,0,0,0,0,0
0.782,0.875,0,0,0,0,0
0.783,1.0625,0,0,0,0,0
0.784,0.6875,0,0,0,0,0
0.785,0.9375,0,0,0,0,0
0.786,1.75,0,0,0,0,0
0.787,1.5625,0,0,0,0,0
0.788,1,0,0,0,0,0
0.789,0.9375,0,0,0,0,0
0.79,1,0,0,0,0,0
0.791,1.25,0,0,0,0,0
0.792,1.0625,0,0,0,0,0
0.793,1.0625,0,0,0,0,0
0.794,0.75,0,0,0,0,0
0.795,0.75,0,0,0,0,0
0.796,0.75,0,0,0,0,0
0.797,0.625,0,0,0,0,0
0.798,1.625,0,0,0,0,0
0.799,1.25,0,0,0,0,0
0.8,0.6875,0,0,0,0,0
0.801,1.0625,0,0,0,0,0
0.802,0.75,0,0,0,0,0
0.803,1.0625,0,0,0,0,0
0.804,0.875,0,0,0,0,0
0.805,0.625,0,0,0,0,0
0.806,0.9375,0,0,0,0,0
0.807,1.0625,0,0,0,0,0
0.808,1,0,0,0,0,0
0.809,0.75,0,0,0,0,0
0.81,1,0,0,0,0,0
0.811,0.9375,0,0,0,0,0
0.812,1.375,0,0,0,0,0
0.813,1.5625,0,0,0,0,0
0.814,1.875,0,0,0,0,0
0.815,1.5625,0,0,0,0,0
0.816,1.875,0,0,0,0,0
0.817,2,0,0,0,0,0
0.818,2.3125,0,0,0,0,0
0.819,2.625,0,0,0,0,0
0.82,1.75,0,0,0,0,0
0.821,1.0625,0,0,0,0,0
0.822,0.5,0,0,0,0,0
0.823,-0.3125,0,0,0,0,0
0.824,-0.3125,0,0,0,0,0
0.825,0,0,0,0,0,0
0.826,-0.5625,0,0,0,0,0
0.827,-0.1875,0,0,0,0,0
0.828,0.25,0,0,0,0,0
0.829,0.125,0,0,0,0,0
0.83,-0.3125,0,0,0,0,0
0.831,0,0,0,0,0,0
0.832,0.0625,0,0,0,0,0
0.833,0.625,0,0,0,0,0
0.834,0.875,0,0,0,0,0
0.835,1.375,0,0,0,0,0
0.836,1.3125,0,0,0,0,0
0.837,1.25,0,0,0,0,0
0.838,1.6875,0,0,0,0,0
0.839,2,0,0,0,0,0
0.84,2.25,0,0,0,0,0
0.841,2.3125,0,0,0,0,0
0.842,2.3125,0,0,0,0,0
0.843,2,0,0,0,0,0
0.844,2.75,0,0,0,0,0
0.845,2,0,0,0,0,0
0.846,1.375,1,0,0,0,0
0.847,1.875,0,0,0,0,0
0.848,1.625,0,0,0,0,0
0.849,1.6875,0,0,0,0,0
0.85,1.5,0,0,0,0,0
0.851,1.5625,0,0,0,0,0
0.852,2.1875,0,0,0,0,0
0.853,2,0,0,0,0,0
0.854,2.3125,0,0,0,0,0
0.855,2,0,0,0,0,0
0.856,2.6875,0,0,0,0,0
0.857,2.9375,0,0,0,0,0
0.858,3.75,0,0,0,0,0
0.859,4.8125,0,0,0,0,0
0.86,5.8125,0,0,0,0,0
0.861,6.375,0,0,0,0,0
0.862,6.625,0,0,0,0,0
0.863,7.3125,0,0,0,0,0
0.864,8.0625,0,0,0,0,0
0.865,9.0625,0,0,0,0,0
0.866,10.375,0,0,0,0,0
0.867,11.688,0,0,0,0,0
0.868,12.25,0,0,0,0,0
0.869,12.813,0,0,0,0,0
0.87,13.813,0,0,0,0,0
0.871,15.625,0,0,0,0,0
0.872,16.688,0,0,0,0,0
0.873,18.438,0,0,0,0,0
0.874,19.625,0,0,0,0,0
0.875,21.688,0,0,0,0,0
0.876,23.625,0,0,0,0,0
0.877,25.938,0,0,0,0,0
0.878,28.688,0,0,0,0,0
0.879,31.688,0,0,0,0,0
0.88,34.563,0,0,0,0,0
0.881,37,0,0,0,0,0
0.882,39.563,0,0,0,0,0
0.883,41.875,0,0,0,0,0
0.884,44.063,0,0,0,0,0
0.885,45.125,0,0,0,0,0
0.886,45.625,0,0,0,0,0
0.887,46.063,0,0,0,0,0
0.888,46.063,0,0,0,0,0
0.889,46.063,0,0,0,0,0
0.89,46.063,0,0,0,0,0
0.891,46.25,0,0,0,0,0
0.892,46.063,0,0,0,0,0
0.893,46.25,0,0,0,0,0
0.894,46.688,0,0,0,0,0
0.895,47,0,0,0,0,0
0.896,47.938,0,0,0,0,0
0.897,48.563,0,0,0,0,0
0.898,48.625,0,0,0,0,0
0.899,49.375,0,1,0,0,0
0.9,49.875,0,0,0,0,0
0.901,50,0,0,0,0,0
0.902,48.625,0,0,0,0,0
0.903,46.375,0,0,0,0,0
0.904,42.688,0,0,0,0,0
0.905,38.875,0,0,0,0,0
0.906,35.813,0,0,0,0,0
0.907,32.188,0,0,0,0,0
0.908,28.625,0,0,0,0,0
0.909,25.313,0,0,0,0,0
0.91,22.75,0,0,0,0,0
0.911,20.938,0,0,0,0,0
0.912,20.313,0,0,0,0,0
0.913,20.438,0,0,0,0,0
0.914,18.563,0,0,0,0,0
0.915,16.25,0,0,0,0,0
0.916,13.188,0,0,0,0,0
0.917,10.313,0,0,0,0,0
0.918,8.125,0,0,0,0,0
0.919,5.625,0,0,0,0,0
0.92,4.375,0,0,0,0,0
0.921,3.125,0,0,0,0,0
0.922,1.9375,0,0,0,0,0
0.923,2.3125,0,0,0,0,0
0.924,1.5,0,0,0,0,0
0.925,0.75,0,0,0,0,0
0.926,0.5625,0,0,0,0,0
0.927,0.125,0,0,0,0,0
0.928,0.125,0,0,0,0,0
0.929,-0.1875,0,0,0,0,0
0.93,-0.5625,0,0,0,0,0
0.931,-0.9375,0,0,0,0,0
0.932,-1.25,0,0,0,0,0
0.933,-0.9375,0,0,0,0,0
0.934,-1.625,0,0,0,0,0
0.935,-2.375,0,0,1,0,0
0.936,-1.8125,0,0,0,0,0
0.937,-2.0625,0,0,0,0,0
0.938,-1.4375,0,0,0,0,0
0.939,-0.625,0,0,0,0,0
0.94,-0.8125,0,0,0,0,0
0.941,-0.3125,0,0,0,0,0
0.942,-0.4375,0,0,0,0,0
0.943,-0.8125,0,0,0,0,0
0.944,-1.0625,0,0,0,0,0
0.945,-0.8125,0,0,0,0,0
0.946,-0.0625,0,0,0,0,0
0.947,0,0,0,0,0,0
0.948,0.4375,0,0,0,0,0
0.949,0.125,0,0,0,0,0
0.95,0,0,0,0,0,0
0.951,-0.3125,0,0,0,0,0
0.952,-0.625,0,0,0,0,0
0.953,-0.1875,0,0,0,0,0
0.954,0.0625,0,0,0,0,0
0.955,0.125,0,0,0,0,0
0.956,-0.5,0,0,0,0,0
0.957,-0.1875,0,0,0,0,0
0.958,-0.4375,0,0,0,0,0
0.959,-1.125,0,0,0,0,0
0.96,-0.0625,0,0,0,0,0
0.961,-0.3125,0,0,0,0,0
0.962,-1,0,0,0,0,0
0.963,-0.625,0,0,0,0,0
0.964,0.125,0,0,0,0,0
0.965,0.75,0,0,0,0,0
0.966,0.125,0,0,0,0,0
0.967,-0.1875,0,0,0,0,0
0.968,-0.1875,0,0,0,0,0
0.969,-0.1875,0,0,0,0,0
0.97,-0.1875,0,0,0,0,0
0.971,0.4375,0,0,0,0,0
0.972,0.6875,0,0,0,0,0
0.973,0.75,0,0,0,0,0
0.974,0.6875,0,0,0,0,0
0.975,0.75,0,0,0,0,0
0.976,1.0625,0,0,0,0,0
0.977,1.375,0,0,0,0,0
0.978,1.4375,0,0,0,0,0
0.979,0.625,0,0,0,0,0
0.98,0.3125,0,0,0,0,0
0.981,-0.3125,0,0,0,0,0
0.982,-0.75,0,0,0,0,0
0.983,-1.125,0,0,0,0,0
0.984,-1.3125,0,0,0,0,0
0.985,-1.5625,0,0,0,0,0
0.986,-1.5,0,0,0,0,0
0.987,-1.25,0,0,0,0,0
0.988,-1.375,0,0,0,0,0
0.989,-1.25,0,0,0,0,0
0.99,-1.1875,0,0,0,0,0
0.991,-1.125,0,0,0,0,0
0.992,-0.6875,0,0,0,0,0
0.993,-0.3125,0,0,0,0,0
0.994,-0.3125,0,0,0,0,0
0.995,0,0,0,0,0,0
0.996,0.4375,0,0,0,0,0
0.997,0.625,0,0,0,0,0
0.998,0,0,0,0,0,0
0.999,0.3125,0,0,0,0,0
1,0.6875,0,0,0,0,0
1.001,0.625,0,0,0,0,0
1.002,0.0625,0,0,0,0,0
1.003,0,0,0,0,0,0
1.004,-0.9375,0,0,0,0,0
1.005,-0.9375,0,0,0,0,0
1.006,-0.3125,0,0,0,0,0
1.007,-0.5,0,0,0,0,0
1.008,-0.4375,0,0,0,0,0
1.009,-0.1875,0,0,0,0,0
1.01,-0.5625,0,0,0,0,0
1.011,-0.625,0,0,0,0,0
1.012,-0.1875,0,0,0,0,0
1.013,-0.625,0,0,0,0,0
1.014,-0.625,0,0,0,0,0
1.015,-0.5,0,0,0,0,0
1.016,-0.5625,0,0,0,0,0
1.017,-0.8125,0,0,0,0,0
1.018,-0.8125,0,0,0,0,0
1.019,-0.8125,0,0,0,0,0
1.02,-1.125,0,0,0,0,0
1.021,-1.125,0,0,0,0,0
1.022,-0.5625,0,0,0,0,0
1.023,-0.8125,0,0,0,0,0
1.024,0.125,0,0,0,0,0
1.025,0.125,0,0,0,0,0
1.026,0,0,0,0,0,0
1.027,0.3125,0,0,0,0,0
1.028,-0.125,0,0,0,0,0
1.029,-0.1875,0,0,0,0,0
1.03,0,0,0,0,0,0
1.031,0,0,0,0,0,0
1.032,0.1875,0,0,0,0,0
1.033,0,0,0,0,0,0
1.034,-0.1875,0,0,0,0,0
1.035,-0.5,0,0,0,0,0
1.036,-1,0,0,0,0,0
1.037,-0.5,0,0,0,0,0
1.038,-0.3125,0,0,0,0,0
1.039,-0.8125,0,0,0,0,0
1.04,-0.5,0,0,0,0,0
1.041,-0.1875,0,0,0,0,0
1.042,-0.3125,0,0,0,0,0
1.043,-0.5,0,0,0,0,0
1.044,-0.8125,0,0,0,0,0
1.045,-0.625,0,0,0,0,0
1.046,-0.6875,0,0,0,0,0
1.047,-1.125,0,0,0,0,0
1.048,-0.75,0,0,0,0,0
1.049,-0.9375,0,0,0,0,0
1.05,-0.5625,0,0,0,0,0
1.051,-1.25,0,0,0,0,0
1.052,-1.4375,0,0,0,0,0
1.053,-1.125,0,0,0,0,0
1.054,-1.1875,0,0,0,0,0
1.055,-0.9375,0,0,0,0,0
1.056,-0.5625,0,0,0,0,0
1.057,-0.625,0,0,0,0,0
1.058,-0.5,0,0,0,0,0
1.059,-0.5,0,0,0,0,0
1.06,-0.375,0,0,0,0,0
1.061,-0.1875,0,0,0,0,0
1.062,-0.6875,0,0,0,0,0
1.063,-0.625,0,0,0,0,0
1.064,-1.4375,0,0,0,0,0
1.065,-1.4375,0,0,0,0,0
1.066,-1.5625,0,0,0,0,0
1.067,-1.875,0,0,0,0,0
1.068,-0.9375,0,0,0,0,0
1.069,-0.3125,0,0,0,0,0
1.07,-0.875,0,0,0,0,0
1.071,-0.5,0,0,0,0,0
1.072,-0.4375,0,0,0,0,0
1.073,-0.5,0,0,0,0,0
1.074,-0.4375,0,0,0,0,0
1.075,-1.125,0,0,0,0,0
1.076,-1.5,0,0,0,0,0
1.077,-1.5625,0,0,0,0,0
1.078,-1.5,0,0,0,0,0
1.079,-1.25,0,0,0,0,0
1.08,-2,0,0,0,0,0
1.081,-1.875,0,0,0,0,0
1.082,-2.375,0,0,0,0,0
1.083,-1.125,0,0,0,0,0
1.084,-0.5,0,0,0,0,0
1.085,-0.625,0,0,0,0,0
1.086,-1,0,0,0,0,0
1.087,-1.875,0,0,0,0,0
1.088,-0.75,0,0,0,0,0
1.089,-0.8125,0,0,0,0,0
1.09,-0.1875,0,0,0,0,0
1.091,-0.5,0,0,0,0,0
1.092,-0.375,0,0,0,0,0
1.093,0.75,0,0,0,0,0
1.094,0.125,0,0,0,0,0
1.095,-0.625,0,0,0,0,0
1.096,-1,0,0,0,0,0
1.097,-1.4375,0,0,0,0,0
1.098,-2.0625,0,0,0,0,0
1.099,-2.1875,0,0,0,0,0
1.1,-1.625,0,0,0,0,0
1.101,-1.125,0,0,0,0,0
1.102,-2.0625,0,0,0,0,0
1.103,-1.875,0,0,0,0,0
1.104,-1.875,0,0,0,0,0
1.105,-2.6875,0,0,0,0,0
1.106,-1.5625,0,0,0,0,0
1.107,-1.875,0,0,0,0,0
1.108,-1.4375,0,0,0,0,0
1.109,-1.125,0,0,0,0,0
1.11,-1.1875,0,0,0,0,0
1.111,-0.625,0,0,0,0,0
1.112,-0.625,0,0,0,0,0
1.113,-0.9375,0,0,0,0,0
1.114,-0.25,0,0,0,0,0
1.115,0.125,0,0,0,0,0
1.116,0.4375,0,0,0,0,0
1.117,0.125,0,0,0,0,0
1.118,-0.3125,0,0,0,0,0
1.119,-0.9375,0,0,0,0,0
1.12,-1.0625,0,0,0,0,0
1.121,-1.125,0,0,0,0,0
1.122,-1.4375,0,0,0,0,0
1.123,-1.4375,0,0,0,0,0
1.124,-1.5,0,0,0,0,0
1.125,-1.4375,0,0,0,0,0
1.126,-1.25,0,0,0,0,0
1.127,-1.25,0,0,0,0,0
1.128,-1.625,0,0,0,0,0
1.129,-2.0625,0,0,0,0,0
1.13,-1.1875,0,0,0,0,0
1.131,-1.4375,0,0,0,0,0
1.132,-1.5,0,0,0,0,0
1.133,-1.75,0,0,0,0,0
1.134,-1.4375,0,0,0,0,0
1.135,-1.4375,0,0,0,0,0
1.136,-2.125,0,0,0,0,0
1.137,-1.875,0,0,0,0,0
1.138,-1.75,0,0,0,0,0
1.139,-1.875,0,0,0,0,0
1.14,-2.3125,0,0,0,0,0
1.141,-1.875,0,0,0,0,0
1.142,-2.375,0,0,0,0,0
1.143,-2.8125,0,0,0,0,0
1.144,-2.5625,0,0,0,0,0
1.145,-3.125,0,0,0,0,0
1.146,-2.75,0,0,0,0,0
1.147,-2.1875,0,0,0,0,0
1.148,-2.1875,0,0,0,0,0
1.149,-2.0625,0,0,0,0,0
1.15,-2.3125,0,0,0,0,0
1.151,-2.1875,0,0,0,0,0
1.152,-2.125,0,0,0,0,0
1.153,-1.75,0,0,0,0,0
1.154,-2.25,0,0,0,0,0
1.155,-2.1875,0,0,0,0,0
1.156,-2.25,0,0,0,0,0
1.157,-2.375,0,0,0,0,0
1.158,-2.625,0,0,0,0,0
1.159,-2.0625,0,0,0,0,0
1.16,-1.5625,0,0,0,0,0
1.161,-2.0625,0,0,0,0,0
1.162,-3.0625,0,0,0,0,0
1.163,-3.125,0,0,0,0,0
1.164,-3,0,0,0,0,0
1.165,-3,0,0,0,0,0
1.166,-2.75,0,0,0,0,0
1.167,-3.125,0,0,0,0,0
1.168,-3.625,0,0,0,0,0
1.169,-3.75,0,0,0,0,0
1.17,-3.25,0,0,0,0,0
1.171,-3.4375,0,0,0,0,0
1.172,-3.5,0,0,0,0,0
1.173,-3.4375,0,0,0,0,0
1.174,-3.875,0,0,0,0,0
1.175,-4.25,0,0,0,0,0
1.176,-4.75,0,0,0,0,0
1.177,-4.6875,0,0,0,0,0
1.178,-4.375,0,0,0,0,0
1.179,-3.75,0,0,0,0,0
1.18,-3.875,0,0,0,0,0
1.181,-3.625,0,0,0,0,0
1.182,-4.0625,0,0,0,0,0
1.183,-4.6875,0,0,0,0,0
1.184,-5.0625,0,0,0,0,0
1.185,-5,0,0,0,0,0
1.186,-4.5625,0,0,0,0,0
1.187,-4.375,0,0,0,0,0
1.188,-3.875,0,0,0,0,0
1.189,-3.625,0,0,0,0,0
1.19,-4.0625,0,0,0,0,0
1.191,-3.9375,0,0,0,0,0
1.192,-4.125,0,0,0,0,0
1.193,-3.75,0,0,0,0,0
1.194,-3.8125,0,0,0,0,0
1.195,-3.625,0,0,0,0,0
1.196,-3.75,0,0,0,0,0
1.197,-4.0625,0,0,0,0,0
1.198,-4.6875,0,0,0,0,0
1.199,-4.375,0,0,0,0,0
1.2,-3.5,0,0,0,0,0
1.201,-2.5,0,0,0,0,0
1.202,-2.375,0,0,0,0,0
1.203,-1.875,0,0,0,0,0
1.204,-2.625,0,0,0,0,0
1.205,-3,0,0,0,1,0
1.206,-3.125,0,0,0,0,0
1.207,-3.4375,0,0,0,0,0
1.208,-3.5625,0,0,0,0,0
1.209,-3.75,0,0,0,0,0
1.21,-3.9375,0,0,0,0,0
1.211,-3.625,0,0,0,0,0
1.212,-3.125,0,0,0,0,0
1.213,-3.3125,0,0,0,0,0
1.214,-3.3125,0,0,0,0,0
1.215,-3.625,0,0,0,0,0
1.216,-3.9375,0,0,0,0,0
1.217,-3.75,0,0,0,0,0
1.218,-4.4375,0,0,0,0,0
1.219,-4.875,0,0,0,0,0
1.22,-4.0625,0,0,0,0,0
1.221,-4.375,0,0,0,0,0
1.222,-4.625,0,0,0,0,0
1.223,-4.5625,0,0,0,0,0
1.224,-4.375,0,0,0,0,0
1.225,-4.375,0,0,0,0,0
1.226,-4.125,0,0,0,0,0
1.227,-3.75,0,0,0,0,0
1.228,-3.5,0,0,0,0,0
1.229,-3.3125,0,0,0,0,0
1.23,-3.5,0,0,0,0,0
1.231,-3.4375,0,0,0,0,0
1.232,-2.4375,0,0,0,0,0
1.233,-1.875,0,0,0,0,0
1.234,-2.25,0,0,0,0,0
1.235,-2.0625,0,0,0,0,0
1.236,-1.6875,0,0,0,0,0
1.237,-1.5625,0,0,0,0,0
1.238,-1.5625,0,0,0,0,0
1.239,-1.25,0,0,0,0,0
1.24,-1.5625,0,0,0,0,0
1.241,-1.25,0,0,0,0,0
1.242,-1.1875,0,0,0,0,0
1.243,-0.9375,0,0,0,0,0
1.244,-0.625,0,0,0,0,0
1.245,-0.8125,0,0,0,0,0
1.246,-0.3125,0,0,0,0,0
1.247,-0.625,0,0,0,0,0
1.248,-1.0625,0,0,0,0,0
1.249,-0.625,0,0,0,0,0
1.25,-0.25,0,0,0,0,0
1.251,0,0,0,0,0,0
1.252,0.5,0,0,0,0,0
1.253,0.75,0,0,0,0,0
1.254,1.375,0,0,0,0,0
1.255,1.25,0,0,0,0,0
1.256,1.125,0,0,0,0,0
1.257,0.625,0,0,0,0,0
1.258,1.375,0,0,0,0,0
1.259,2,0,0,0,0,0
1.26,1.5,0,0,0,0,0
1.261,1.6875,0,0,0,0,0
1.262,2.1875,0,0,0,0,0
1.263,1.6875,0,0,0,0,0
1.264,1.3125,0,0,0,0,0
1.265,1.375,0,0,0,0,0
1.266,1.375,0,0,0,0,0
1.267,0.9375,0,0,0,0,0
1.268,1.125,0,0,0,0,0
1.269,1.5625,0,0,0,0,0
1.27,1.4375,0,0,0,0,0
1.271,2,0,0,0,0,0
1.272,2.5,0,0,0,0,0
1.273,2.9375,0,0,0,0,0
1.274,3.125,0,0,0,0,0
1.275,2.9375,0,0,0,0,0
1.276,2.0625,0,0,0,0,0
1.277,2.5,0,0,0,0,0
1.278,3,0,0,0,0,0
1.279,2.625,0,0,0,0,0
1.28,2.8125,0,0,0,0,0
1.281,2.9375,0,0,0,0,0
1.282,3.25,0,0,0,0,0
1.283,2.8125,0,0,0,0,0
1.284,2.8125,0,0,0,0,0
1.285,2.3125,0,0,0,0,0
1.286,2.25,0,0,0,0,0
1.287,2.5,0,0,0,0,0
1.288,2.625,0,0,0,0,0
1.289,2.8125,0,0,0,0,0
1.29,3.0625,0,0,0,0,0
1.291,2.9375,0,0,0,0,0
1.292,3.0625,0,0,0,0,0
1.293,3.125,0,0,0,0,0
1.294,3.4375,0,0,0,0,0
1.295,3.4375,0,0,0,0,0
1.296,3.4375,0,0,0,0,0
1.297,3.4375,0,0,0,0,0
1.298,2.4375,0,0,0,0,0
1.299,1.6875,0,0,0,0,0
1.3,1.4375,0,0,0,0,0
1.301,1.0625,0,0,0,0,0
1.302,0.75,0,0,0,0,0
1.303,0.9375,0,0,0,0,0
1.304,1.5625,0,0,0,0,0
1.305,2.5,0,0,0,0,0
1.306,2.5625,0,0,0,0,0
1.307,1.875,0,0,0,0,0
1.308,1.4375,0,0,0,0,0
1.309,1.0625,0,0,0,0,0
1.31,2,0,0,0,0,0
1.311,2.1875,0,0,0,0,0
1.312,2.375,0,0,0,0,0
1.313,2.625,0,0,0,0,0
1.314,1.625,0,0,0,0,0
1.315,1.6875,0,0,0,0,0
1.316,1.875,0,0,0,0,0
1.317,2.3125,0,0,0,0,0
1.318,1.875,0,0,0,0,0
1.319,1.6875,0,0,0,0,0
1.32,1.8125,0,0,0,0,0
1.321,2.5,0,0,0,0,0
1.322,2.1875,0,0,0,0,0
1.323,2.1875,0,0,0,0,0
1.324,2.25,0,0,0,0,0
1.325,2.625,0,0,0,0,0
1.326,2.625,0,0,0,0,0
1.327,2.8125,0,0,0,0,0
1.328,3.1875,0,0,0,0,0
1.329,3.4375,0,0,0,0,0
1.33,3.375,0,0,0,0,0
1.331,4.1875,0,0,0,0,0
1.332,3.8125,0,0,0,0,0
1.333,3.25,0,0,0,0,0
1.334,2.875,0,0,0,0,0
1.335,2.3125,0,0,0,0,0
1.336,1.8125,0,0,0,0,0
1.337,2,0,0,0,0,0
1.338,1.4375,0,0,0,0,0
1.339,1.25,0,0,0,0,0
1.34,1.0625,0,0,0,0,0
1.341,1.6875,0,0,0,0,0
1.342,1.4375,0,0,0,0,0
1.343,1.25,0,0,0,0,0
1.344,1.8125,0,0,0,0,0
1.345,1.875,0,0,0,0,0
1.346,2.125,0,0,0,0,0
1.347,2.1875,0,0,0,0,0
1.348,2,0,0,0,0,0
1.349,1.875,0,0,0,0,0
1.35,2.3125,0,0,0,0,0
1.351,1.6875,0,0,0,0,0
1.352,2.125,0,0,0,0,0
1.353,2.5,0,0,0,0,0
1.354,2.5625,0,0,0,0,0
1.355,2.1875,0,0,0,0,0
1.356,2,0,0,0,0,0
1.357,1.6875,0,0,0,0,0
1.358,2.25,0,0,0,0,0
1.359,2.3125,0,0,0,0,0
1.36,2.125,0,0,0,0,0
1.361,1.875,0,0,0,0,0
1.362,2.5625,0,0,0,0,0
1.363,2.1875,0,0,0,0,0
1.364,2.375,0,0,0,0,0
1.365,2.3125,0,0,0,0,0
1.366,2.375,0,0,0,0,0
1.367,2.3125,0,0,0,0,0
1.368,2.0625,0,0,0,0,0
1.369,1.875,0,0,0,0,0
1.37,2,0,0,0,0,0
1.371,2,0,0,0,0,0
1.372,1.5625,0,0,0,0,0
1.373,1.6875,0,0,0,0,0
1.374,1.8125,0,0,0,0,0
1.375,1.6875,0,0,0,0,0
1.376,1.75,0,0,0,0,0
1.377,1.5625,0,0,0,0,0
1.378,1.5625,0,0,0,0,0
1.379,2.1875,0,0,0,0,0
1.38,1.6875,0,0,0,0,0
1.381,1.875,0,0,0,0,0
1.382,1.9375,0,0,0,0,0
1.383,1.5625,0,0,0,0,0
1.384,0.8125,0,0,0,0,0
1.385,0.4375,0,0,0,0,0
1.386,0.6875,0,0,0,0,0
1.387,0.9375,0,0,0,0,0
1.388,0.875,0,0,0,0,0
1.389,1.5625,0,0,0,0,0
1.39,1.5,0,0,0,0,1
1.391,1.375,0,0,0,0,0
1.392,1.8125,0,0,0,0,0
1.393,1.875,0,0,0,0,0
1.394,1.375,0,0,0,0,0
1.395,1.375,0,0,0,0,0
1.396,0.75,0,0,0,0,0
1.397,-0.1875,0,0,0,0,0
1.398,-0.5,0,0,0,0,0
1.399,-0.1875,0,0,0,0,0
1.4,0.375,0,0,0,0,0
1.401,0.3125,0,0,0,0,0
1.402,0.0625,0,0,0,0,0
1.403,-0.1875,0,0,0,0,0
1.404,0.3125,0,0,0,0,0
1.405,0.625,0,0,0,0,0
1.406,0.3125,0,0,0,0,0
1.407,0.4375,0,0,0,0,0
1.408,0.625,0,0,0,0,0
1.409,0.4375,0,0,0,0,0
1.41,0.4375,0,0,0,0,0
1.411,0,0,0,0,0,0
1.412,0.875,0,0,0,0,0
1.413,1.25,0,0,0,0,0
1.414,1.125,0,0,0,0,0
1.415,1.25,0,0,0,0,0
1.416,1.3125,0,0,0,0,0
1.417,1.5625,0,0,0,0,0
1.418,1.875,0,0,0,0,0
1.419,1.0625,0,0,0,0,0
1.42,1.25,0,0,0,0,0
1.421,1.25,0,0,0,0,0
1.422,0.8125,0,0,0,0,0
1.423,0.75,0,0,0,0,0
1.424,0.8125,0,0,0,0,0
1.425,1.25,0,0,0,0,0
1.426,1.8125,0,0,0,0,0
1.427,1.5625,0,0,0,0,0
1.428,0.625,0,0,0,0,0
1.429,0,0,0,0,0,0
1.43,0.4375,0,0,0,0,0
1.431,0.125,0,0,0,0,0
1.432,0.125,0,0,0,0,0
1.433,0.125,0,0,0,0,0
1.434,0.25,0,0,0,0,0
1.435,0.625,0,0,0,0,0
1.436,0.6875,0,0,0,0,0
1.437,0.9375,0,0,0,0,0
1.438,0.9375,0,0,0,0,0
1.439,1.0625,0,0,0,0,0
1.44,1.0625,0,0,0,0,0
1.441,1.5625,0,0,0,0,0
1.442,1.875,0,0,0,0,0
1.443,2.3125,0,0,0,0,0
1.444,1.375,0,0,0,0,0
1.445,0.9375,0,0,0,0,0
1.446,0.75,0,0,0,0,0
1.447,0.9375,0,0,0,0,0
1.448,1.375,0,0,0,0,0
1.449,1.875,0,0,0,0,0
1.45,2.1875,0,0,0,0,0
1.451,2,0,0,0,0,0
1.452,1.25,0,0,0,0,0
1.453,0.9375,0,0,0,0,0
1.454,0.875,0,0,0,0,0
1.455,0.9375,0,0,0,0,0
1.456,-0.0625,0,0,0,0,0
1.457,-0.625,0,0,0,0,0
1.458,-0.6875,0,0,0,0,0
1.459,-0.625,0,0,0,0,0
1.46,-0.0625,0,0,0,0,0
1.461,0.125,0,0,0,0,0
1.462,0.3125,0,0,0,0,0
1.463,0.9375,0,0,0,0,0
1.464,1.0625,0,0,0,0,0
1.465,0.75,0,0,0,0,0
1.466,1,0,0,0,0,0
1.467,1.25,0,0,0,0,0
1.468,1.3125,0,0,0,0,0
1.469,1.25,0,0,0,0,0
1.47,0.875,0,0,0,0,0
1.471,1.25,0,0,0,0,0
1.472,0.8125,0,0,0,0,0
1.473,0.125,0,0,0,0,0
1.474,0.3125,0,0,0,0,0
1.475,-0.1875,0,0,0,0,0
1.476,-0.375,0,0,0,0,0
1.477,0,0,0,0,0,0
1.478,0.6875,0,0,0,0,0
1.479,1.25,0,0,0,0,0
1.48,1.0625,0,0,0,0,0
1.481,0.9375,0,0,0,0,0
1.482,1.125,0,0,0,0,0
1.483,1.0625,0,0,0,0,0
1.484,0.5,0,0,0,0,0
1.485,0.75,0,0,0,0,0
1.486,1.375,0,0,0,0,0
1.487,1.5625,0,0,0,0,0
1.488,0.9375,0,0,0,0,0
1.489,0.75,0,0,0,0,0
1.49,1,0,0,0,0,0
1.491,1.0625,0,0,0,0,0
1.492,1.0625,0,0,0,0,0
1.493,1.375,0,0,0,0,0
1.494,1.5,0,0,0,0,0
1.495,1.375,0,0,0,0,0
1.496,1.6875,0,0,0,0,0
1.497,2.1875,0,0,0,0,0
1.498,1.6875,0,0,0,0,0
1.499,1.25,0,0,0,0,0
1.5,1.25,0,0,0,0,0
1.501,1.25,0,0,0,0,0
1.502,1.3125,0,0,0,0,0
1.503,1.375,0,0,0,0,0
1.504,0.8125,0,0,0,0,0
1.505,0.75,0,0,0,0,0
1.506,1.0625,0,0,0,0,0
1.507,1.25,0,0,0,0,0
1.508,0.5,0,0,0,0,0
1.509,0.9375,0,0,0,0,0
1.51,1.375,0,0,0,0,0
1.511,1.5625,0,0,0,0,0
1.512,1.5,0,0,0,0,0
1.513,1.6875,0,0,0,0,0
1.514,1.5,0,0,0,0,0
1.515,1.5625,0,0,0,0,0
1.516,1.3125,0,0,0,0,0
1.517,1.0625,0,0,0,0,0
1.518,0.875,0,0,0,0,0
1.519,0.9375,0,0,0,0,0
1.52,1.625,0,0,0,0,0
1.521,1.875,0,0,0,0,0
1.522,1.4375,0,0,0,0,0
1.523,1.0625,0,0,0,0,0
1.524,1.0625,0,0,0,0,0
1.525,0.625,0,0,0,0,0
1.526,1.125,0,0,0,0,0
1.527,1.5625,0,0,0,0,0
1.528,1,0,0,0,0,0
1.529,0.3125,0,0,0,0,0
1.53,-0.0625,0,0,0,0,0
1.531,0,0,0,0,0,0
1.532,0.375,0,0,0,0,0
1.533,0.3125,0,0,0,0,0
1.534,0.25,0,0,0,0,0
1.535,0.3125,0,0,0,0,0
1.536,0.8125,0,0,0,0,0
1.537,1.25,0,0,0,0,0
1.538,1.5625,0,0,0,0,0
1.539,1.875,0,0,0,0,0
1.54,1.5625,0,0,0,0,0
1.541,1.6875,0,0,0,0,0
1.542,1.75,0,0,0,0,0
1.543,1.5625,0,0,0,0,0
1.544,1.4375,0,0,0,0,0
1.545,2,0,0,0,0,0
1.546,2.25,0,0,0,0,0
1.547,2,0,0,0,0,0
1.548,2.3125,0,0,0,0,0
1.549,2.5,0,0,0,0,0
1.55,1.8125,0,0,0,0,0
1.551,1.875,0,0,0,0,0
1.552,2.125,0,0,0,0,0
1.553,1.5625,0,0,0,0,0
1.554,1.9375,0,0,0,0,0
1.555,1.875,0,0,0,0,0
1.556,1.5625,0,0,0,0,0
1.557,1.6875,0,0,0,0,0
1.558,0.8125,0,0,0,0,0
1.559,1.0625,0,0,0,0,0
1.56,0.875,0,0,0,0,0
1.561,1.0625,0,0,0,0,0
1.562,0.625,0,0,0,0,0
1.563,0.9375,0,0,0,0,0
1.564,0.8125,0,0,0,0,0
1.565,0.4375,0,0,0,0,0
1.566,0.75,0,0,0,0,0
1.567,0.9375,0,0,0,0,0
1.568,1.5,0,0,0,0,0
1.569,2,0,0,0,0,0
1.57,2.625,0,0,0,0,0
1.571,2.3125,0,0,0,0,0
1.572,1.9375,0,0,0,0,0
1.573,2.1875,0,0,0,0,0
1.574,2.1875,0,0,0,0,0
1.575,1.6875,0,0,0,0,0
1.576,0.9375,0,0,0,0,0
1.577,0.3125,0,0,0,0,0
1.578,0.5625,0,0,0,0,0
1.579,0.75,0,0,0,0,0
1.58,1.5,0,0,0,0,0
1.581,1.6875,0,0,0,0,0
1.582,0.5625,0,0,0,0,0
1.583,0.9375,0,0,0,0,0
1.584,1.125,0,0,0,0,0
1.585,0.9375,0,0,0,0,0
1.586,1.9375,0,0,0,0,0
1.587,2.1875,0,0,0,0,0
1.588,2,0,0,0,0,0
1.589,2.1875,0,0,0,0,0
1.59,1.9375,0,0,0,0,0
1.591,1.25,0,0,0,0,0
1.592,1.625,0,0,0,0,0
1.593,1.375,0,0,0,0,0
1.594,1.375,0,0,0,0,0
1.595,1.6875,0,0,0,0,0
1.596,1.125,0,0,0,0,0
1.597,0.75,0,0,0,0,0
1.598,0.375,0,0,0,0,0
1.599,0.125,0,0,0,0,0
1.6,0.1875,0,0,0,0,0
1.601,1.25,0,0,0,0,0
1.602,1.25,0,0,0,0,0
1.603,0.9375,0,0,0,0,0
1.604,1.25,0,0,0,0,0
1.605,0.9375,0,0,0,0,0
1.606,1.6875,0,0,0,0,0
1.607,2.1875,0,0,0,0,0
1.608,2.125,0,0,0,0,0
1.609,2.5,0,0,0,0,0
1.61,2.375,0,0,0,0,0
1.611,2,0,0,0,0,0
1.612,1.5,0,0,0,0,0
1.613,1.375,0,0,0,0,0
1.614,1.375,0,0,0,0,0
1.615,1.0625,0,0,0,0,0
1.616,0.6875,0,0,0,0,0
1.617,-0.3125,0,0,0,0,0
1.618,0.625,0,0,0,0,0
1.619,0.9375,0,0,0,0,0
1.62,0.9375,0,0,0,0,0
1.621,1.25,0,0,0,0,0
1.622,1.1875,0,0,0,0,0
1.623,1.25,0,0,0,0,0
1.624,1.0625,0,0,0,0,0
1.625,0.9375,0,0,0,0,0
1.626,1.3125,0,0,0,0,0
1.627,1.25,0,0,0,0,0
1.628,1.125,0,0,0,0,0
1.629,1.25,0,0,0,0,0
1.63,0.9375,0,0,0,0,0
1.631,0.4375,0,0,0,0,0
1.632,1.0625,0,0,0,0,0
1.633,0.75,0,0,0,0,0
1.634,1.0625,0,0,0,0,0
1.635,1.0625,0,0,0,0,0
1.636,-0.5,0,0,0,0,0
1.637,-1.5625,0,0,0,0,0
1.638,-1.125,0,0,0,0,0
1.639,-0.8125,0,0,0,0,0
1.64,-0.25,0,0,0,0,0
1.641,0.4375,0,0,0,0,0
1.642,2.0625,0,0,0,0,0
1.643,3.125,0,0,0,0,0
1.644,2.5625,0,0,0,0,0
1.645,2.625,0,0,0,0,0
1.646,2.6875,0,0,0,0,0
1.647,2,0,0,0,0,0
1.648,1.8125,0,0,0,0,0
1.649,1.6875,0,0,0,0,0
1.65,1.5625,0,0,0,0,0
1.651,0.9375,0,0,0,0,0
1.652,0.75,0,0,0,0,0
1.653,1.25,0,0,0,0,0
1.654,1.625,0,0,0,0,0
1.655,1.6875,0,0,0,0,0
1.656,1.75,0,0,0,0,0
1.657,2,0,0,0,0,0
1.658,1.875,0,0,0,0,0
1.659,1.875,0,0,0,0,0
1.66,1.5,0,0,0,0,0
1.661,1.25,0,0,0,0,0
1.662,1,0,0,0,0,0
1.663,0.75,0,0,0,0,0
1.664,0.3125,0,0,0,0,0
1.665,0.3125,0,0,0,0,0
1.666,0.5625,0,0,0,0,0
1.667,1.0625,0,0,0,0,0
1.668,1.1875,0,0,0,0,0
1.669,0.9375,0,0,0,0,0
1.67,1.0625,0,0,0,0,0
1.671,1.0625,0,0,0,0,0
1.672,1.5,0,0,0,0,0
1.673,0.9375,0,0,0,0,0
1.674,1.25,0,0,0,0,0
1.675,1.25,0,0,0,0,0
1.676,0.8125,0,0,0,0,0
1.677,1.25,0,0,0,0,0
1.678,1.25,0,0,0,0,0
1.679,1.875,0,0,0,0,0
1.68,2.0625,0,0,0,0,0
1.681,2.8125,0,0,0,0,0
1.682,2,0,0,0,0,0
1.683,2,0,0,0,0,0
1.684,1.9375,0,0,0,0,0
1.685,1.5625,0,0,0,0,0
1.686,1.875,0,0,0,0,0
1.687,2,0,0,0,0,0
1.688,1.8125,0,0,0,0,0
1.689,1.6875,0,0,0,0,0
1.69,1.875,0,0,0,0,0
1.691,2,0,0,0,0,0
1.692,1.6875,0,0,0,0,0
1.693,1.5625,0,0,0,0,0
1.694,1.375,0,0,0,0,0
1.695,1.5625,0,0,0,0,0
1.696,0.625,0,0,0,0,0
1.697,-0.1875,0,0,0,0,0
1.698,1.0625,0,0,0,0,0
1.699,1.25,0,0,0,0,0
1.7,1,0,0,0,0,0
1.701,1.25,0,0,0,0,0
1.702,1.5,0,0,0,0,0
1.703,1.5625,0,0,0,0,0
1.704,1.625,0,0,0,0,0
1.705,1.5625,0,0,0,0,0
1.706,1.375,0,0,0,0,0
1.707,1.25,0,0,0,0,0
1.708,1.375,0,0,0,0,0
1.709,1.25,0,0,0,0,0
1.71,1.1875,0,0,0,0,0
1.711,1.375,0,0,0,0,0
1.712,0.875,0,0,0,0,0
1.713,0.9375,0,0,0,0,0
1.714,0.25,0,0,0,0,0
1.715,0,0,0,0,0,0
1.716,0.5,0,0,0,0,0
1.717,0,0,0,0,0,0
1.718,0.3125,0,0,0,0,0
1.719,0.4375,0,0,0,0,0
1.72,1.375,0,0,0,0,0
1.721,2,0,0,0,0,0
1.722,1.625,0,0,0,0,0
1.723,1.0625,0,0,0,0,0
1.724,2.1875,0,0,0,0,0
1.725,2.1875,0,0,0,0,0
1.726,1.75,0,0,0,0,0
1.727,1.5625,0,0,0,0,0
1.728,1.375,0,0,0,0,0
1.729,1.6875,0,0,0,0,0
1.73,2.1875,0,0,0,0,0
1.731,2.1875,0,0,0,0,0
1.732,2.125,0,0,0,0,0
1.733,2.5,0,0,0,0,0
1.734,2.0625,0,0,0,0,0
1.735,1.6875,0,0,0,0,0
1.736,1.5,0,0,0,0,0
1.737,1.25,0,0,0,0,0
1.738,0.9375,0,0,0,0,0
1.739,0.125,0,0,0,0,0
1.74,0.0625,0,0,0,0,0
1.741,0.3125,0,0,0,0,0
1.742,0.6875,0,0,0,0,0
1.743,0.75,0,0,0,0,0
1.744,1,0,0,0,0,0
1.745,0.9375,0,0,0,0,0
1.746,1.5,0,0,0,0,0
1.747,2,0,0,0,0,0
1.748,2,0,0,0,0,0
1.749,1.875,0,0,0,0,0
1.75,2.125,0,0,0,0,0
1.751,2,0,0,0,0,0
1.752,2.5,0,0,0,0,0
1.753,2.625,0,0,0,0,0
1.754,2.75,0,0,0,0,0
1.755,2.625,0,0,0,0,0
1.756,2.6875,0,0,0,0,0
1.757,2.8125,0,0,0,0,0
1.758,2.75,0,0,0,0,0
1.759,2.625,0,0,0,0,0
1.76,2.25,0,0,0,0,0
1.761,2.8125,0,0,0,0,0
1.762,2.9375,0,0,0,0,0
1.763,3.125,0,0,0,0,0
1.764,3.375,0,0,0,0,0
1.765,3.25,0,0,0,0,0
1.766,3.25,0,0,0,0,0
1.767,3.125,0,0,0,0,0
1.768,2.6875,0,0,0,0,0
1.769,2.8125,0,0,0,0,0
1.77,2.625,0,0,0,0,0
1.771,2.625,0,0,0,0,0
1.772,2.375,0,0,0,0,0
1.773,2.1875,0,0,0,0,0
1.774,1.875,0,0,0,0,0
1.775,2.5,0,0,0,0,0
1.776,3,0,0,0,0,0
1.777,3.25,0,0,0,0,0
1.778,2.75,0,0,0,0,0
1.779,2.8125,0,0,0,0,0
1.78,2.9375,0,0,0,0,0
1.781,2.9375,0,0,0,0,0
1.782,3.25,0,0,0,0,0
1.783,3.125,0,0,0,0,0
1.784,3.375,0,0,0,0,0
1.785,3.75,0,0,0,0,0
1.786,3.9375,0,0,0,0,0
1.787,4.6875,0,0,0,0,0
1.788,5.0625,0,0,0,0,0
1.789,4.8125,0,0,0,0,0
1.79,4.8125,0,0,0,0,0
1.791,4.1875,0,0,0,0,0
1.792,4.5,0,0,0,0,0
1.793,4.6875,0,0,0,0,0
1.794,4.4375,0,0,0,0,0
1.795,4.1875,0,0,0,0,0
1.796,4.625,0,0,0,0,0
1.797,5,0,0,0,0,0
1.798,4.9375,0,0,0,0,0
1.799,4.8125,0,0,0,0,0
1.8,5.0625,0,0,0,0,0
1.801,5.3125,0,0,0,0,0
1.802,4.5625,0,0,0,0,0
1.803,4.5,0,0,0,0,0
1.804,5.125,0,0,0,0,0
1.805,5.3125,0,0,0,0,0
1.806,4.125,0,0,0,0,0
1.807,4.0625,0,0,0,0,0
1.808,3.75,0,0,0,0,0
1.809,3.75,0,0,0,0,0
1.81,4.1875,0,0,0,0,0
1.811,4.0625,0,0,0,0,0
1.812,3.625,0,0,0,0,0
1.813,3.5625,0,0,0,0,0
1.814,3.6875,0,0,0,0,0
1.815,4.0625,0,0,0,0,0
1.816,3.25,0,0,0,0,0
1.817,2.5,0,0,0,0,0
1.818,2.875,0,0,0,0,0
1.819,3.25,0,0,0,0,0
1.82,3.5,0,0,0,0,0
1.821,3.4375,0,0,0,0,0
1.822,3.3125,0,0,0,0,0
1.823,3.125,0,0,0,0,0
1.824,3.1875,0,0,0,0,0
1.825,3.4375,0,0,0,0,0
1.826,3.4375,0,0,0,0,0
1.827,3.25,0,0,0,0,0
1.828,3.0625,0,0,0,0,0
1.829,3.125,0,0,0,0,0
1.83,1.8125,0,0,0,0,0
1.831,1.25,0,0,0,0,0
1.832,2.3125,0,0,0,0,0
1.833,3.125,0,0,0,0,0
1.834,3.0625,0,0,0,0,0
1.835,2.9375,0,0,0,0,0
1.836,2.0625,0,0,0,0,0
1.837,1.5625,0,0,0,0,0
1.838,0.9375,0,0,0,0,0
1.839,0.75,0,0,0,0,0
1.84,0.3125,0,0,0,0,0
1.841,0.3125,0,0,0,0,0
1.842,0.3125,0,0,0,0,0
1.843,0.125,0,0,0,0,0
1.844,0.4375,0,0,0,0,0
1.845,0.4375,0,0,0,0,0
1.846,0.375,0,0,0,0,0
1.847,0.625,0,0,0,0,0
1.848,0.125,0,0,0,0,0
1.849,0.3125,0,0,0,0,0
1.85,1.0625,0,0,0,0,0
1.851,0.75,0,0,0,0,0
1.852,0.1875,0,0,0,0,0
1.853,0.125,0,0,0,0,0
1.854,0.375,0,0,0,0,0
1.855,0.75,0,0,0,0,0
1.856,0.8125,0,0,0,0,0
1.857,1.0625,0,0,0,0,0
1.858,1,0,0,0,0,0
1.859,1.25,0,0,0,0,0
1.86,1.0625,0,0,0,0,0
1.861,0.75,0,0,0,0,0
1.862,1.5625,0,0,0,0,0
1.863,0.9375,0,0,0,0,0
1.864,0.25,0,0,0,0,0
1.865,0.4375,0,0,0,0,0
1.866,1.0625,0,0,0,0,0
1.867,2.3125,0,0,0,0,0
1.868,2.125,0,0,0,0,0
1.869,1.6875,0,0,0,0,0
1.87,1.5625,0,0,0,0,0
1.871,1.0625,0,0,0,0,0
1.872,1.25,0,0,0,0,0
1.873,1.25,0,0,0,0,0
1.874,1.375,0,0,0,0,0
1.875,1.25,0,0,0,0,0
1.876,1.375,0,0,0,0,0
1.877,1.0625,0,0,0,0,0
1.878,1.3125,0,0,0,0,0
1.879,0.9375,0,0,0,0,0
1.88,0.9375,0,0,0,0,0
1.881,0.75,0,0,0,0,0
1.882,0.9375,0,0,0,0,0
1.883,1.0625,0,0,0,0,0
1.884,1.25,0,0,0,0,0
1.885,1.5625,0,0,0,0,0
1.886,1.5,0,0,0,0,0
1.887,1.25,0,0,0,0,0
1.888,1.5,0,0,0,0,0
1.889,2,0,0,0,0,0
1.89,1.5,0,0,0,0,0
1.891,1.875,0,0,0,0,0
1.892,2.375,0,0,0,0,0
1.893,2.5,0,0,0,0,0
1.894,1.75,0,0,0,0,0
1.895,1.6875,0,0,0,0,0
1.896,1.125,0,0,0,0,0
1.897,1.0625,0,0,0,0,0
1.898,1.3125,0,0,0,0,0
1.899,1.6875,0,0,0,0,0
1.9,1.6875,0,0,0,0,0
1.901,1.6875,0,0,0,0,0
1.902,2,0,0,0,0,0
1.903,2.1875,0,0,0,0,0
1.904,2.3125,0,0,0,0,0
1.905,2.3125,0,0,0,0,0
1.906,2.5625,0,0,0,0,0
1.907,2.625,0,0,0,0,0
1.908,3.8125,0,0,0,0,0
1.909,3.5625,0,0,0,0,0
1.91,3.125,0,0,0,0,0
1.911,3.75,0,0,0,0,0
1.912,3.875,0,0,0,0,0
1.913,4.375,0,0,0,0,0
1.914,4.125,0,0,0,0,0
1.915,4.0625,1,0,0,0,0
1.916,4.25,0,0,0,0,0
1.917,3.75,0,0,0,0,0
1.918,4.125,0,0,0,0,0
1.919,4.0625,0,0,0,0,0
1.92,5.375,0,0,0,0,0
1.921,6.25,0,0,0,0,0
1.922,6.375,0,0,0,0,0
1.923,6.875,0,0,0,0,0
1.924,7.5625,0,0,0,0,0
1.925,7.9375,0,0,0,0,0
1.926,7.9375,0,0,0,0,0
1.927,8.4375,0,0,0,0,0
1.928,8.625,0,0,0,0,0
1.929,9.1875,0,0,0,0,0
1.93,9.75,0,0,0,0,0
1.931,10.313,0,0,0,0,0
1.932,11.75,0,0,0,0,0
1.933,13.25,0,0,0,0,0
1.934,14.938,0,0,0,0,0
1.935,17.313,0,0,0,0,0
1.936,18.75,0,0,0,0,0
1.937,20.938,0,0,0,0,0
1.938,22.5,0,0,0,0,0
1.939,25,0,0,0,0,0
1.94,27.625,0,0,0,0,0
1.941,30.625,0,0,0,0,0
1.942,33.063,0,0,0,0,0
1.943,35.75,0,0,0,0,0
1.944,38.438,0,0,0,0,0
1.945,40.625,0,0,0,0,0
1.946,42.625,0,0,0,0,0
1.947,44.375,0,0,0,0,0
1.948,48.125,0,0,0,0,0
1.949,50.75,0,0,0,0,0
1.95,51.813,0,0,0,0,0
1.951,52.813,0,0,0,0,0
1.952,52.938,0,0,0,0,0
1.953,53.125,0,0,0,0,0
1.954,53.813,0,0,0,0,0
1.955,54.688,0,0,0,0,0
1.956,55.063,0,0,0,0,0
1.957,55.75,0,0,0,0,0
1.958,56.25,0,0,0,0,0
1.959,56.563,0,0,0,0,0
1.96,57.813,0,0,0,0,0
1.961,58.875,0,0,0,0,0
1.962,58.75,0,1,0,0,0
1.963,59.375,0,0,0,0,0
1.964,59.75,0,0,0,0,0
1.965,59.688,0,0,0,0,0
1.966,59,0,0,0,0,0
1.967,57.5,0,0,0,0,0
1.968,53.563,0,0,0,0,0
1.969,49.5,0,0,0,0,0
1.97,45.813,0,0,0,0,0
1.971,41.563,0,0,0,0,0
1.972,37.375,0,0,0,0,0
1.973,33.25,0,0,0,0,0
1.974,30.438,0,0,0,0,0
1.975,28.438,0,0,0,0,0
1.976,26.375,0,0,0,0,0
1.977,25.125,0,0,0,0,0
1.978,24.938,0,0,0,0,0
1.979,24.375,0,0,0,0,0
1.98,20.5,0,0,0,0,0
1.981,16.875,0,0,0,0,0
1.982,13,0,0,0,0,0
1.983,8.875,0,0,0,0,0
1.984,7.375,0,0,0,0,0
1.985,5.75,0,0,0,0,0
1.986,4.1875,0,0,0,0,0
1.987,4.1875,0,0,0,0,0
1.988,3.625,0,0,0,0,0
1.989,3.25,0,0,0,0,0
1.99,3.0625,0,0,0,0,0
1.991,2.8125,0,0,0,0,0
1.992,2.0625,0,0,0,0,0
1.993,1.0625,0,0,0,0,0
1.994,0.5,0,0,0,0,0
1.995,-0.1875,0,0,0,0,0
1.996,-0.8125,0,0,0,0,0
1.997,-0.8125,0,0,0,0,0
1.998,-1,0,0,1,0,0
1.999,-1.125,0,0,0,0,0
2,-0.25,0,0,0,0,0
2.001,-0.1875,0,0,0,0,0
2.002,-0.3125,0,0,0,0,0
2.003,-0.3125,0,0,0,0,0
2.004,-0.75,0,0,0,0,0
2.005,-0.625,0,0,0,0,0
2.006,-0.375,0,0,0,0,0
2.007,-0.1875,0,0,0,0,0
2.008,-0.1875,0,0,0,0,0
2.009,0.3125,0,0,0,0,0
2.01,0.625,0,0,0,0,0
2.011,0.3125,0,0,0,0,0
2.012,1,0,0,0,0,0
2.013,1.0625,0,0,0,0,0
2.014,0.875,0,0,0,0,0
2.015,0.625,0,0,0,0,0
2.016,0.1875,0,0,0,0,0
2.017,0.625,0,0,0,0,0
2.018,0.875,0,0,0,0,0
2.019,0.9375,0,0,0,0,0
2.02,0.75,0,0,0,0,0
2.021,1.6875,0,0,0,0,0
2.022,2.0625,0,0,0,0,0
2.023,2,0,0,0,0,0
2.024,1.875,0,0,0,0,0
2.025,0.3125,0,0,0,0,0
2.026,-0.5,0,0,0,0,0
2.027,-0.1875,0,0,0,0,0
2.028,-0.0625,0,0,0,0,0
2.029,-0.1875,0,0,0,0,0
2.03,-1.3125,0,0,0,0,0
2.031,-2.1875,0,0,0,0,0
2.032,-2,0,0,0,0,0
2.033,-1.5625,0,0,0,0,0
2.034,-1.5625,0,0,0,0,0
2.035,-0.9375,0,0,0,0,0
2.036,-0.75,0,0,0,0,0
2.037,-0.8125,0,0,0,0,0
2.038,-1.0625,0,0,0,0,0
2.039,-1.125,0,0,0,0,0
2.04,-1.125,0,0,0,0,0
2.041,-1.125,0,0,0,0,0
2.042,-0.625,0,0,0,0,0
2.043,-0.9375,0,0,0,0,0
2.044,-0.8125,0,0,0,0,0
2.045,-0.9375,0,0,0,0,0
2.046,-1,0,0,0,0,0
2.047,-0.9375,0,0,0,0,0
2.048,-1.3125,0,0,0,0,0
2.049,-1.5625,0,0,0,0,0
2.05,-1.5,0,0,0,0,0
2.051,-1.25,0,0,0,0,0
2.052,-1.3125,0,0,0,0,0
2.053,-1.125,0,0,0,0,0
2.054,-0.6875,0,0,0,0,0
2.055,-0.3125,0,0,0,0,0
2.056,-0.25,0,0,0,0,0
2.057,-0.1875,0,0,0,0,0
2.058,-0.1875,0,0,0,0,0
2.059,0.125,0,0,0,0,0
2.06,0.25,0,0,0,0,0
2.061,0,0,0,0,0,0
2.062,-0.625,0,0,0,0,0
2.063,-0.3125,0,0,0,0,0
2.064,-0.0625,0,0,0,0,0
2.065,-0.1875,0,0,0,0,0
2.066,0.25,0,0,0,0,0
2.067,1.0625,0,0,0,0,0
2.068,-0.1875,0,0,0,0,0
2.069,-0.5,0,0,0,0,0
2.07,-0.25,0,0,0,0,0
2.071,-0.9375,0,0,0,0,0
2.072,-0.8125,0,0,0,0,0
2.073,-0.3125,0,0,0,0,0
2.074,-0.25,0,0,0,0,0
2.075,0.125,0,0,0,0,0
2.076,0.625,0,0,0,0,0
2.077,0.125,0,0,0,0,0
2.078,0.6875,0,0,0,0,0
2.079,1.375,0,0,0,0,0
2.08,1.5,0,0,0,0,0
2.081,1.5625,0,0,0,0,0
2.082,0.25,0,0,0,0,0
2.083,-1.125,0,0,0,0,0
2.084,-2,0,0,0,0,0
2.085,-2.5,0,0,0,0,0
2.086,-2.25,0,0,0,0,0
2.087,-2.6875,0,0,0,0,0
2.088,-2.0625,0,0,0,0,0
2.089,-2.375,0,0,0,0,0
2.09,-2.4375,0,0,0,0,0
2.091,-2.0625,0,0,0,0,0
2.092,-2.0625,0,0,0,0,0
2.093,-1.5625,0,0,0,0,0
2.094,-0.9375,0,0,0,0,0
2.095,-0.5,0,0,0,0,0
2.096,-0.6875,0,0,0,0,0
2.097,-1.25,0,0,0,0,0
2.098,-0.9375,0,0,0,0,0
2.099,-0.8125,0,0,0,0,0
2.1,-1.4375,0,0,0,0,0
2.101,-0.9375,0,0,0,0,0
2.102,-0.875,0,0,0,0,0
2.103,-1.4375,0,0,0,0,0
2.104,-1.625,0,0,0,0,0
2.105,-1.75,0,0,0,0,0
2.106,-0.75,0,0,0,0,0
2.107,0.3125,0,0,0,0,0
2.108,-0.375,0,0,0,0,0
2.109,-0.625,0,0,0,0,0
2.11,-0.5,0,0,0,0,0
2.111,-0.625,0,0,0,0,0
2.112,-0.1875,0,0,0,0,0
2.113,-0.3125,0,0,0,0,0
2.114,0.375,0,0,0,0,0
2.115,0,0,0,0,0,0
2.116,-0.4375,0,0,0,0,0
2.117,-0.5,0,0,0,0,0
2.118,-1,0,0,0,0,0
2.119,-1.25,0,0,0,0,0
2.12,-0.875,0,0,0,0,0
2.121,-0.9375,0,0,0,0,0
2.122,-0.8125,0,0,0,0,0
2.123,-0.8125,0,0,0,0,0
2.124,-0.875,0,0,0,0,0
2.125,-0.9375,0,0,0,0,0
2.126,-1.125,0,0,0,0,0
2.127,-0.625,0,0,0,0,0
2.128,-0.9375,0,0,0,0,0
2.129,-0.5,0,0,0,0,0
2.13,-0.5625,0,0,0,0,0
2.131,-0.8125,0,0,0,0,0
2.132,-0.875,0,0,0,0,0
2.133,-1.25,0,0,0,0,0
2.134,-2.25,0,0,0,0,0
2.135,-2.375,0,0,0,0,0
2.136,-2.3125,0,0,0,0,0
2.137,-2.375,0,0,0,0,0
2.138,-2.1875,0,0,0,0,0
2.139,-2.6875,0,0,0,0,0
2.14,-2.75,0,0,0,0,0
2.141,-2.5,0,0,0,0,0
2.142,-2.5625,0,0,0,0,0
2.143,-2.375,0,0,0,0,0
2.144,-2.75,0,0,0,0,0
2.145,-2.375,0,0,0,0,0
2.146,-2.8125,0,0,0,0,0
2.147,-1.4375,0,0,0,0,0
2.148,-1,0,0,0,0,0
2.149,-1.4375,0,0,0,0,0
2.15,-1.25,0,0,0,0,0
2.151,-1.4375,0,0,0,0,0
2.152,-0.75,0,0,0,0,0
2.153,-1.25,0,0,0,0,0
2.154,-1.125,0,0,0,0,0
2.155,-1.875,0,0,0,0,0
2.156,-2.25,0,0,0,0,0
2.157,-1.75,0,0,0,0,0
2.158,-1.9375,0,0,0,0,0
2.159,-2.1875,0,0,0,0,0
2.16,-1.9375,0,0,0,0,0
2.161,-1.5625,0,0,0,0,0
2.162,-2.0625,0,0,0,0,0
2.163,-2.0625,0,0,0,0,0
2.164,-1.625,0,0,0,0,0
2.165,-1.4375,0,0,0,0,0
2.166,-1.75,0,0,0,0,0
2.167,-0.9375,0,0,0,0,0
2.168,-0.875,0,0,0,0,0
2.169,-1.5625,0,0,0,0,0
2.17,-1,0,0,0,0,0
2.171,-1.875,0,0,0,0,0
2.172,-1.1875,0,0,0,0,0
2.173,-0.625,0,0,0,0,0
2.174,-1.0625,0,0,0,0,0
2.175,-0.8125,0,0,0,0,0
2.176,-1.5,0,0,0,0,0
2.177,-2.5,0,0,0,0,0
2.178,-2.75,0,0,0,0,0
2.179,-3.3125,0,0,0,0,0
2.18,-2.8125,0,0,0,0,0
2.181,-2.8125,0,0,0,0,0
2.182,-2.875,0,0,0,0,0
2.183,-3.125,0,0,0,0,0
2.184,-3.375,0,0,0,0,0
2.185,-3.625,0,0,0,0,0
2.186,-3.875,0,0,0,0,0
2.187,-3.75,0,0,0,0,0
2.188,-3.3125,0,0,0,0,0
2.189,-2.6875,0,0,0,0,0
2.19,-2.1875,0,0,0,0,0
2.191,-1.875,0,0,0,0,0
2.192,-2.0625,0,0,0,0,0
2.193,-2.375,0,0,0,0,0
2.194,-1.8125,0,0,0,0,0
2.195,-2.375,0,0,0,0,0
2.196,-2.25,0,0,0,0,0
2.197,-2.375,0,0,0,0,0
2.198,-1.875,0,0,0,0,0
2.199,-1.5625,0,0,0,0,0
2.2,-2.3125,0,0,0,0,0
2.201,-2.0625,0,0,0,0,0
2.202,-2.0625,0,0,0,0,0
2.203,-2.375,0,0,0,0,0
2.204,-2.9375,0,0,0,0,0
2.205,-2.6875,0,0,0,0,0
2.206,-2.6875,0,0,0,0,0
2.207,-2.6875,0,0,0,0,0
2.208,-2.5,0,0,0,0,0
2.209,-3.3125,0,0,0,0,0
2.21,-3.5,0,0,0,0,0
2.211,-3.625,0,0,0,0,0
2.212,-3.625,0,0,0,0,0
2.213,-3.4375,0,0,0,0,0
2.214,-3.625,0,0,0,0,0
2.215,-3.3125,0,0,0,0,0
2.216,-3.4375,0,0,0,0,0
2.217,-3.3125,0,0,0,0,0
2.218,-3.0625,0,0,0,0,0
2.219,-2.1875,0,0,0,0,0
2.22,-1.9375,0,0,0,0,0
2.221,-1.875,0,0,0,0,0
2.222,-2.5,0,0,0,0,0
2.223,-2.375,0,0,0,0,0
2.224,-2.375,0,0,0,0,0
2.225,-3.4375,0,0,0,0,0
2.226,-4,0,0,0,0,0
2.227,-3.625,0,0,0,0,0
2.228,-4.1875,0,0,0,0,0
2.229,-5,0,0,0,0,0
2.23,-5.0625,0,0,0,0,0
2.231,-5.8125,0,0,0,0,0
2.232,-4.9375,0,0,0,0,0
2.233,-3.75,0,0,0,0,0
2.234,-3.0625,0,0,0,0,0
2.235,-3,0,0,0,0,0
2.236,-3.6875,0,0,0,0,0
2.237,-4.375,0,0,0,0,0
2.238,-4.1875,0,0,0,0,0
2.239,-3.9375,0,0,0,0,0
2.24,-4,0,0,0,0,0
2.241,-3.4375,0,0,0,0,0
2.242,-3.625,0,0,0,0,0
2.243,-3.4375,0,0,0,0,0
2.244,-3.875,0,0,0,0,0
2.245,-4.0625,0,0,0,0,0
2.246,-4.0625,0,0,0,0,0
2.247,-4.25,0,0,0,0,0
2.248,-4.5,0,0,0,0,0
2.249,-4.25,0,0,0,0,0
2.25,-4.1875,0,0,0,0,0
2.251,-4.375,0,0,0,0,0
2.252,-4.125,0,0,0,0,0
2.253,-4.25,0,0,0,0,0
2.254,-4.625,0,0,0,0,0
2.255,-4.375,0,0,0,0,0
2.256,-5.0625,0,0,0,0,0
2.257,-5.1875,0,0,0,0,0
2.258,-5.375,0,0,0,0,0
2.259,-5.3125,0,0,0,0,0
2.26,-5.5625,0,0,0,0,0
2.261,-5.9375,0,0,0,0,0
2.262,-6.75,0,0,0,0,0
2.263,-6.5625,0,0,0,1,0
2.264,-6.5625,0,0,0,0,0
2.265,-6.5625,0,0,0,0,0
2.266,-6.0625,0,0,0,0,0
2.267,-5.1875,0,0,0,0,0
2.268,-5.625,0,0,0,0,0
2.269,-5.8125,0,0,0,0,0
2.27,-5.75,0,0,0,0,0
2.271,-5.8125,0,0,0,0,0
2.272,-5.125,0,0,0,0,0
2.273,-4.375,0,0,0,0,0
2.274,-4.5625,0,0,0,0,0
2.275,-4.25,0,0,0,0,0
2.276,-3.4375,0,0,0,0,0
2.277,-3.3125,0,0,0,0,0
2.278,-3.375,0,0,0,0,0
2.279,-3.75,0,0,0,0,0
2.28,-4,0,0,0,0,0
2.281,-3.75,0,0,0,0,0
2.282,-4.375,0,0,0,0,0
2.283,-4.6875,0,0,0,0,0
2.284,-4.25,0,0,0,0,0
2.285,-4.875,0,0,0,0,0
2.286,-4.8125,0,0,0,0,0
2.287,-4.375,0,0,0,0,0
2.288,-4.75,0,0,0,0,0
2.289,-5.3125,0,0,0,0,0
2.29,-5.1875,0,0,0,0,0
2.291,-4.875,0,0,0,0,0
2.292,-4.5,0,0,0,0,0
2.293,-4.0625,0,0,0,0,0
2.294,-3.5625,0,0,0,0,0
2.295,-2.6875,0,0,0,0,0
2.296,-2.5,0,0,0,0,0
2.297,-2.8125,0,0,0,0,0
2.298,-2.875,0,0,0,0,0
2.299,-2.1875,0,0,0,0,0
2.3,-1.6875,0,0,0,0,0
2.301,-1.25,0,0,0,0,0
2.302,-1.5625,0,0,0,0,0
2.303,-1.5625,0,0,0,0,0
2.304,-1.9375,0,0,0,0,0
2.305,-1.75,0,0,0,0,0
2.306,-0.875,0,0,0,0,0
2.307,0.125,0,0,0,0,0
2.308,0.125,0,0,0,0,0
2.309,-0.5,0,0,0,0,0
2.31,-0.375,0,0,0,0,0
2.311,-1.125,0,0,0,0,0
2.312,-1.125,0,0,0,0,0
2.313,-0.1875,0,0,0,0,0
2.314,0.125,0,0,0,0,0
2.315,0.3125,0,0,0,0,0
2.316,0.5,0,0,0,0,0
2.317,0.4375,0,0,0,0,0
2.318,1.125,0,0,0,0,0
2.319,1.0625,0,0,0,0,0
2.32,1.3125,0,0,0,0,0
2.321,1.25,0,0,0,0,0
2.322,1.1875,0,0,0,0,0
2.323,0.9375,0,0,0,0,0
2.324,0.4375,0,0,0,0,0
2.325,0.625,0,0,0,0,0
2.326,1.375,0,0,0,0,0
2.327,1.25,0,0,0,0,0
2.328,1,0,0,0,0,0
2.329,1.25,0,0,0,0,0
2.33,1.75,0,0,0,0,0
2.331,2,0,0,0,0,0
2.332,2.3125,0,0,0,0,0
2.333,2.9375,0,0,0,0,0
2.334,2.375,0,0,0,0,0
2.335,2.3125,0,0,0,0,0
2.336,2.5,0,0,0,0,0
2.337,2.625,0,0,0,0,0
2.338,3.6875,0,0,0,0,0
2.339,4.375,0,0,0,0,0
2.34,3.5625,0,0,0,0,0
2.341,4.0625,0,0,0,0,0
2.342,3.9375,0,0,0,0,0
2.343,2.9375,0,0,0,0,0
2.344,2.8125,0,0,0,0,0
2.345,2.625,0,0,0,0,0
2.346,3.1875,0,0,0,0,0
2.347,2.9375,0,0,0,0,0
2.348,3.5625,0,0,0,0,0
2.349,3.75,0,0,0,0,0
2.35,3.5,0,0,0,0,0
2.351,3.5625,0,0,0,0,0
2.352,3.6875,0,0,0,0,0
2.353,3.75,0,0,0,0,0
2.354,3.4375,0,0,0,0,0
2.355,2.625,0,0,0,0,0
2.356,2.5625,0,0,0,0,0
2.357,2.5,0,0,0,0,0
2.358,2.3125,0,0,0,0,0
2.359,1.875,0,0,0,0,0
2.36,2.3125,0,0,0,0,0
2.361,2.8125,0,0,0,0,0
2.362,2.75,0,0,0,0,0
2.363,3.125,0,0,0,0,0
2.364,2.875,0,0,0,0,0
2.365,2.625,0,0,0,0,0
2.366,2.75,0,0,0,0,0
2.367,3.25,0,0,0,0,0
2.368,3.25,0,0,0,0,0
2.369,3.5625,0,0,0,0,0
2.37,3.875,0,0,0,0,0
2.371,3.4375,0,0,0,0,0
2.372,2.5625,0,0,0,0,0
2.373,1.875,0,0,0,0,0
2.374,2.0625,0,0,0,0,0
2.375,1.375,0,0,0,0,0
2.376,1.625,0,0,0,0,0
2.377,1.875,0,0,0,0,0
2.378,1.0625,0,0,0,0,0
2.379,1.375,0,0,0,0,0
2.38,2,0,0,0,0,0
2.381,2.9375,0,0,0,0,0
2.382,2.875,0,0,0,0,0
2.383,3.125,0,0,0,0,0
2.384,2.875,0,0,0,0,0
2.385,3.25,0,0,0,0,0
2.386,3.375,0,0,0,0,0
2.387,3.875,0,0,0,0,0
2.388,3.8125,0,0,0,0,0
2.389,4.0625,0,0,0,0,0
2.39,3.1875,0,0,0,0,0
2.391,2.5,0,0,0,0,0
2.392,2.375,0,0,0,0,0
2.393,2,0,0,0,0,0
2.394,1.375,0,0,0,0,0
2.395,1.5625,0,0,0,0,0
2.396,1.9375,0,0,0,0,0
2.397,2.1875,0,0,0,0,0
2.398,2.25,0,0,0,0,0
2.399,2.1875,0,0,0,0,0
2.4,2,0,0,0,0,0
2.401,2.625,0,0,0,0,0
2.402,2.125,0,0,0,0,0
2.403,2,0,0,0,0,0
2.404,2.0625,0,0,0,0,0
2.405,2.9375,0,0,0,0,0
2.406,3,0,0,0,0,0
2.407,3.125,0,0,0,0,0
2.408,3.3125,0,0,0,0,0
2.409,2.9375,0,0,0,0,0
2.41,2.6875,0,0,0,0,0
2.411,2.1875,0,0,0,0,0
2.412,2.0625,0,0,0,0,0
2.413,1.875,0,0,0,0,0
2.414,2.6875,0,0,0,0,0
2.415,2.5,0,0,0,0,0
2.416,2.6875,0,0,0,0,0
2.417,2.9375,0,0,0,0,0
2.418,2.6875,0,0,0,0,0
2.419,1.875,0,0,0,0,0
2.42,1.6875,0,0,0,0,0
2.421,1.375,0,0,0,0,0
2.422,1.6875,0,0,0,0,0
2.423,1.5625,0,0,0,0,0
2.424,1.25,0,0,0,0,0
2.425,0.75,0,0,0,0,0
2.426,1.4375,0,0,0,0,0
2.427,0.9375,0,0,0,0,0
2.428,1.125,0,0,0,0,0
2.429,1.25,0,0,0,0,0
2.43,1.25,0,0,0,0,0
2.431,1.25,0,0,0,0,0
2.432,1.5,0,0,0,0,0
2.433,1.875,0,0,0,0,0
2.434,1.9375,0,0,0,0,0
2.435,1.875,0,0,0,0,0
2.436,1.3125,0,0,0,0,0
2.437,1.375,0,0,0,0,0
2.438,1.625,0,0,0,0,0
2.439,1.6875,0,0,0,0,0
2.44,1.8125,0,0,0,0,0
2.441,1.6875,0,0,0,0,0
2.442,1.625,0,0,0,0,0
2.443,2.1875,0,0,0,0,0
2.444,1.375,0,0,0,0,0
2.445,1.25,0,0,0,0,0
2.446,1.9375,0,0,0,0,0
2.447,2.1875,0,0,0,0,0
2.448,1.9375,0,0,0,0,0
2.449,2,0,0,0,0,0
2.45,2.0625,0,0,0,0,0
2.451,2,0,0,0,0,0
2.452,1.5,0,0,0,0,0
2.453,1.875,0,0,0,0,0
2.454,2.25,0,0,0,0,0
2.455,2.625,0,0,0,0,0
2.456,3.1875,0,0,0,0,0
2.457,3.4375,0,0,0,0,0
2.458,2.375,0,0,0,0,0
2.459,1.875,0,0,0,0,0
2.46,1.3125,0,0,0,0,0
2.461,0.4375,0,0,0,0,0
2.462,-0.0625,0,0,0,0,0
2.463,0.125,0,0,0,0,0
2.464,0.375,0,0,0,0,0
2.465,0,0,0,0,0,0
2.466,-0.25,0,0,0,0,0
2.467,-0.5,0,0,0,0,0
2.468,-0.0625,0,0,0,0,0
2.469,0.3125,0,0,0,0,0
2.47,0.0625,0,0,0,0,0
2.471,0.3125,0,0,0,0,0
2.472,0.25,0,0,0,0,0
2.473,-0.1875,0,0,0,0,0
2.474,0.125,0,0,0,0,1
2.475,0.125,0,0,0,0,0
2.476,0.875,0,0,0,0,0
2.477,0.9375,0,0,0,0,0
2.478,0.375,0,0,0,0,0
2.479,0,0,0,0,0,0
2.48,0.125,0,0,0,0,0
2.481,0.4375,0,0,0,0,0
2.482,1.1875,0,0,0,0,0
2.483,0.9375,0,0,0,0,0
2.484,0.6875,0,0,0,0,0
2.485,0.3125,0,0,0,0,0
2.486,-0.0625,0,0,0,0,0
2.487,0,0,0,0,0,0
2.488,0.0625,0,0,0,0,0
2.489,0.4375,0,0,0,0,0
2.49,0.875,0,0,0,0,0
2.491,0.625,0,0,0,0,0
2.492,0.0625,0,0,0,0,0
2.493,-0.1875,0,0,0,0,0
2.494,0.5625,0,0,0,0,0
2.495,0.4375,0,0,0,0,0
2.496,0.5,0,0,0,0,0
2.497,0.625,0,0,0,0,0
2.498,0.75,0,0,0,0,0
2.499,1.0625,0,0,0,0,0
2.5,1.25,0,0,0,0,0
2.501,1.5625,0,0,0,0,0
2.502,1.5,0,0,0,0,0
2.503,1.5625,0,0,0,0,0
2.504,1.25,0,0,0,0,0
2.505,1.375,0,0,0,0,0
2.506,1.1875,0,0,0,0,0
2.507,0.9375,0,0,0,0,0
2.508,0,0,0,0,0,0
2.509,-0.5,0,0,0,0,0
2.51,-0.375,0,0,0,0,0
2.511,0.125,0,0,0,0,0
2.512,0.4375,0,0,0,0,0
2.513,0.75,0,0,0,0,0
2.514,1.1875,0,0,0,0,0
2.515,1.0625,0,0,0,0,0
2.516,-0.375,0,0,0,0,0
2.517,-1.4375,0,0,0,0,0
2.518,-1.0625,0,0,0,0,0
2.519,-0.5,0,0,0,0,0
2.52,-0.5,0,0,0,0,0
2.521,0,0,0,0,0,0
2.522,-0.25,0,0,0,0,0
2.523,-0.3125,0,0,0,0,0
2.524,0.3125,0,0,0,0,0
2.525,0.4375,0,0,0,0,0
2.526,0.4375,0,0,0,0,0
2.527,0.9375,0,0,0,0,0
2.528,0.875,0,0,0,0,0
2.529,0.4375,0,0,0,0,0
2.53,0.375,0,0,0,0,0
2.531,0.3125,0,0,0,0,0
2.532,0.3125,0,0,0,0,0
2.533,0.3125,0,0,0,0,0
2.534,0.1875,0,0,0,0,0
2.535,0.75,0,0,0,0,0
2.536,0.625,0,0,0,0,0
2.537,0.3125,0,0,0,0,0
2.538,0.625,0,0,0,0,0
2.539,0.3125,0,0,0,0,0
2.54,0.25,0,0,0,0,0
2.541,0.9375,0,0,0,0,0
2.542,1.125,0,0,0,0,0
2.543,1.25,0,0,0,0,0
2.544,1.4375,0,0,0,0,0
2.545,1.6875,0,0,0,0,0
2.546,1.375,0,0,0,0,0
2.547,0.75,0,0,0,0,0
2.548,0.875,0,0,0,0,0
2.549,1.6875,0,0,0,0,0
2.55,1.875,0,0,0,0,0
2.551,1.5625,0,0,0,0,0
2.552,1.625,0,0,0,0,0
2.553,2.1875,0,0,0,0,0
2.554,2.5,0,0,0,0,0
2.555,2.625,0,0,0,0,0
2.556,1.9375,0,0,0,0,0
2.557,1.5625,0,0,0,0,0
2.558,0.6875,0,0,0,0,0
2.559,-0.3125,0,0,0,0,0
2.56,-0.4375,0,0,0,0,0
2.561,-0.3125,0,0,0,0,0
2.562,-0.375,0,0,0,0,0
2.563,-0.5,0,0,0,0,0
2.564,-0.25,0,0,0,0,0
2.565,0,0,0,0,0,0
2.566,0.5,0,0,0,0,0
2.567,1.0625,0,0,0,0,0
2.568,0.0625,0,0,0,0,0
2.569,-0.5,0,0,0,0,0
2.57,-0.375,0,0,0,0,0
2.571,-0.5,0,0,0,0,0
2.572,-0.875,0,0,0,0,0
2.573,-0.1875,0,0,0,0,0
2.574,-0.0625,0,0,0,0,0
2.575,-0.1875,0,0,0,0,0
2.576,0.125,0,0,0,0,0
2.577,0.625,0,0,0,0,0
2.578,0.5625,0,0,0,0,0
2.579,0.75,0,0,0,0,0
2.58,1.0625,0,0,0,0,0
2.581,1.375,0,0,0,0,0
2.582,0.875,0,0,0,0,0
2.583,0.625,0,0,0,0,0
2.584,1.0625,0,0,0,0,0
2.585,1.0625,0,0,0,0,0
2.586,0.75,0,0,0,0,0
2.587,0.625,0,0,0,0,0
2.588,1.125,0,0,0,0,0
2.589,1.25,0,0,0,0,0
2.59,0.75,0,0,0,0,0
2.591,0.125,0,0,0,0,0
2.592,0.4375,0,0,0,0,0
2.593,0.625,0,0,0,0,0
2.594,1.0625,0,0,0,0,0
2.595,2,0,0,0,0,0
2.596,2,0,0,0,0,0
2.597,1.5625,0,0,0,0,0
2.598,1.5625,0,0,0,0,0
2.599,1.5625,0,0,0,0,0
2.6,1.6875,0,0,0,0,0
2.601,1.6875,0,0,0,0,0
2.602,1.75,0,0,0,0,0
2.603,1.875,0,0,0,0,0
2.604,1.4375,0,0,0,0,0
2.605,1.375,0,0,0,0,0
2.606,1.625,0,0,0,0,0
2.607,1.6875,0,0,0,0,0
2.608,1.25,0,0,0,0,0
2.609,1.375,0,0,0,0,0
2.61,0.5625,0,0,0,0,0
2.611,-0.8125,0,0,0,0,0
2.612,-0.3125,0,0,0,0,0
2.613,0,0,0,0,0,0
2.614,-0.5,0,0,0,0,0
2.615,-0.3125,0,0,0,0,0
2.616,0.0625,0,0,0,0,0
2.617,-0.3125,0,0,0,0,0
2.618,0.375,0,0,0,0,0
2.619,0.625,0,0,0,0,0
2.62,0.625,0,0,0,0,0
2.621,1.0625,0,0,0,0,0
2.622,0.1875,0,0,0,0,0
2.623,0.4375,0,0,0,0,0
2.624,0.1875,0,0,0,0,0
2.625,0.3125,0,0,0,0,0
2.626,0.1875,0,0,0,0,0
2.627,0.9375,0,0,0,0,0
2.628,0.9375,0,0,0,0,0
2.629,0.75,0,0,0,0,0
2.63,0.5625,0,0,0,0,0
2.631,0.125,0,0,0,0,0
2.632,0.375,0,0,0,0,0
2.633,0.4375,0,0,0,0,0
2.634,0.875,0,0,0,0,0
2.635,0.4375,0,0,0,0,0
2.636,-0.0625,0,0,0,0,0
2.637,0,0,0,0,0,0
2.638,0.5,0,0,0,0,0
2.639,0.625,0,0,0,0,0
2.64,1,0,0,0,0,0
2.641,1.5625,0,0,0,0,0
2.642,1.75,0,0,0,0,0
2.643,1.875,0,0,0,0,0
2.644,2.375,0,0,0,0,0
2.645,2.3125,0,0,0,0,0
2.646,0.75,0,0,0,0,0
2.647,0.75,0,0,0,0,0
2.648,0.9375,0,0,0,0,0
2.649,0.75,0,0,0,0,0
2.65,1.4375,0,0,0,0,0
2.651,1.375,0,0,0,0,0
2.652,1.1875,0,0,0,0,0
2.653,0.75,0,0,0,0,0
2.654,0.875,0,0,0,0,0
2.655,0.9375,0,0,0,0,0
2.656,0.875,0,0,0,0,0
2.657,0.75,0,0,0,0,0
2.658,0.9375,0,0,0,0,0
2.659,0.75,0,0,0,0,0
2.66,0.5625,0,0,0,0,0
2.661,0.75,0,0,0,0,0
2.662,0.5,0,0,0,0,0
2.663,0.3125,0,0,0,0,0
2.664,0.75,0,0,0,0,0
2.665,1.25,0,0,0,0,0
2.666,1.5,0,0,0,0,0
2.667,1.6875,0,0,0,0,0
2.668,2.1875,0,0,0,0,0
2.669,2.5,0,0,0,0,0
2.67,3.3125,0,0,0,0,0
2.671,3.4375,0,0,0,0,0
2.672,3.125,0,0,0,0,0
2.673,2.9375,0,0,0,0,0
2.674,2.25,0,0,0,0,0
2.675,2.1875,0,0,0,0,0
2.676,1.0625,0,0,0,0,0
2.677,0.4375,0,0,0,0,0
2.678,0.125,0,0,0,0,0
2.679,-0.625,0,0,0,0,0
2.68,0.125,0,0,0,0,0
2.681,1.0625,0,0,0,0,0
2.682,1,0,0,0,0,0
2.683,1.25,0,0,0,0,0
2.684,0.3125,0,0,0,0,0
2.685,0,0,0,0,0,0
2.686,0.9375,0,0,0,0,0
2.687,1.375,0,0,0,0,0
2.688,1.1875,0,0,0,0,0
2.689,0.9375,0,0,0,0,0
2.69,1,0,0,0,0,0
2.691,0.3125,0,0,0,0,0
2.692,0.8125,0,0,0,0,0
2.693,1.5625,0,0,0,0,0
2.694,2.1875,0,0,0,0,0
2.695,2.8125,0,0,0,0,0
2.696,2.1875,0,0,0,0,0
2.697,1.6875,0,0,0,0,0
2.698,0.875,0,0,0,0,0
2.699,0.625,0,0,0,0,0
2.7,1.3125,0,0,0,0,0
2.701,1.5625,0,0,0,0,0
2.702,1.6875,0,0,0,0,0
2.703,1.375,0,0,0,0,0
2.704,0.9375,0,0,0,0,0
2.705,1.0625,0,0,0,0,0
2.706,1.1875,0,0,0,0,0
2.707,1.375,0,0,0,0,0
2.708,0.9375,0,0,0,0,0
2.709,1.5625,0,0,0,0,0
2.71,1,0,0,0,0,0
2.711,0.75,0,0,0,0,0
2.712,0.9375,0,0,0,0,0
2.713,0.75,0,0,0,0,0
2.714,1.125,0,0,0,0,0
2.715,1.25,0,0,0,0,0
2.716,1.0625,0,0,0,0,0
2.717,1.0625,0,0,0,0,0
2.718,0.625,0,0,0,0,0
2.719,0.625,0,0,0,0,0
2.72,0.875,0,0,0,0,0
2.721,0.9375,0,0,0,0,0
2.722,0.5625,0,0,0,0,0
2.723,0.75,0,0,0,0,0
2.724,-0.0625,0,0,0,0,0
2.725,0,0,0,0,0,0
2.726,0.4375,0,0,0,0,0
2.727,0.4375,0,0,0,0,0
2.728,0.5625,0,0,0,0,0
2.729,0.75,0,0,0,0,0
2.73,0.6875,0,0,0,0,0
2.731,0.9375,0,0,0,0,0
2.732,1.4375,0,0,0,0,0
2.733,2,0,0,0,0,0
2.734,1.8125,0,0,0,0,0
2.735,1.5625,0,0,0,0,0
2.736,2.0625,0,0,0,0,0
2.737,2.1875,0,0,0,0,0
2.738,1.4375,0,0,0,0,0
2.739,1.25,0,0,0,0,0
2.74,1.3125,0,0,0,0,0
2.741,1.375,0,0,0,0,0
2.742,1,0,0,0,0,0
2.743,0.625,0,0,0,0,0
2.744,1.125,0,0,0,0,0
2.745,1.375,0,0,0,0,0
2.746,1.8125,0,0,0,0,0
2.747,2.625,0,0,0,0,0
2.748,2.4375,0,0,0,0,0
2.749,1.375,0,0,0,0,0
2.75,1.375,0,0,0,0,0
2.751,1.375,0,0,0,0,0
2.752,1.625,0,0,0,0,0
2.753,2.1875,0,0,0,0,0
2.754,2.1875,0,0,0,0,0
2.755,2,0,0,0,0,0
2.756,2.1875,0,0,0,0,0
2.757,2,0,0,0,0,0
2.758,2.4375,0,0,0,0,0
2.759,2.3125,0,0,0,0,0
2.76,1.625,0,0,0,0,0
2.761,2,0,0,0,0,0
2.762,1.9375,0,0,0,0,0
2.763,1.5625,0,0,0,0,0
2.764,0.8125,0,0,0,0,0
2.765,1.25,0,0,0,0,0
2.766,1.25,0,0,0,0,0
2.767,1.0625,0,0,0,0,0
2.768,1.6875,0,0,0,0,0
2.769,1.25,0,0,0,0,0
2.77,0.3125,0,0,0,0,0
2.771,-0.625,0,0,0,0,0
2.772,0.25,0,0,0,0,0
2.773,0.125,0,0,0,0,0
2.774,0.4375,0,0,0,0,0
2.775,0.625,0,0,0,0,0
2.776,0.25,0,0,0,0,0
2.777,0.4375,0,0,0,0,0
2.778,0.75,0,0,0,0,0
2.779,0.9375,0,0,0,0,0
2.78,1.125,0,0,0,0,0
2.781,1.375,0,0,0,0,0
2.782,1.75,0,0,0,0,0
2.783,1.6875,0,0,0,0,0
2.784,1.625,0,0,0,0,0
2.785,1.375,0,0,0,0,0
2.786,1.3125,0,0,0,0,0
2.787,1.0625,0,0,0,0,0
2.788,0.6875,0,0,0,0,0
2.789,1.0625,0,0,0,0,0
2.79,1.375,0,0,0,0,0
2.791,1.6875,0,0,0,0,0
2.792,1.375,0,0,0,0,0
2.793,1.25,0,0,0,0,0
2.794,1.3125,0,0,0,0,0
2.795,1.0625,0,0,0,0,0
2.796,0.8125,0,0,0,0,0
2.797,1.0625,0,0,0,0,0
2.798,1.1875,0,0,0,0,0
2.799,0.9375,0,0,0,0,0
2.8,1,0,0,0,0,0
2.801,1.5625,0,0,0,0,0
2.802,1.75,0,0,0,0,0
2.803,1.5625,0,0,0,0,0
2.804,1.875,0,0,0,0,0
2.805,1.375,0,0,0,0,0
2.806,1.3125,0,0,0,0,0
2.807,1.875,0,0,0,0,0
2.808,1.1875,0,0,0,0,0
2.809,0.9375,0,0,0,0,0
2.81,0.6875,0,0,0,0,0
2.811,0.75,0,0,0,0,0
2.812,0.625,0,0,0,0,0
2.813,0.75,0,0,0,0,0
2.814,0.5,0,0,0,0,0
2.815,0.75,0,0,0,0,0
2.816,1.4375,0,0,0,0,0
2.817,1.875,0,0,0,0,0
2.818,1.3125,0,0,0,0,0
2.819,1.0625,0,0,0,0,0
2.82,1.5625,0,0,0,0,0
2.821,1.6875,0,0,0,0,0
2.822,1.1875,0,0,0,0,0
2.823,1.375,0,0,0,0,0
2.824,2.0625,0,0,0,0,0
2.825,1.875,0,0,0,0,0
2.826,1.625,0,0,0,0,0
2.827,1.6875,0,0,0,0,0
2.828,1.75,0,0,0,0,0
2.829,1.6875,0,0,0,0,0
2.83,1.375,0,0,0,0,0
2.831,1.375,0,0,0,0,0
2.832,1.6875,0,0,0,0,0
2.833,1.875,0,0,0,0,0
2.834,1.875,0,0,0,0,0
2.835,2,0,0,0,0,0
2.836,1.875,0,0,0,0,0
2.837,1.875,0,0,0,0,0
2.838,1.75,0,0,0,0,0
2.839,2.1875,0,0,0,0,0
2.84,2.0625,0,0,0,0,0
2.841,1.875,0,0,0,0,0
2.842,1.75,0,0,0,0,0
2.843,2,0,0,0,0,0
2.844,2.375,0,0,0,0,0
2.845,3.125,0,0,0,0,0
2.846,3.1875,0,0,0,0,0
2.847,3.5625,0,0,0,0,0
2.848,3.75,0,0,0,0,0
2.849,3.5625,0,0,0,0,0
2.85,3.3125,0,0,0,0,0
2.851,2.3125,0,0,0,0,0
2.852,2.25,0,0,0,0,0
2.853,2.1875,0,0,0,0,0
2.854,2.4375,0,0,0,0,0
2.855,2.9375,0,0,0,0,0
2.856,2.875,0,0,0,0,0
2.857,2.8125,0,0,0,0,0
2.858,2.5625,0,0,0,0,0
2.859,2.3125,0,0,0,0,0
2.86,2.8125,0,0,0,0,0
2.861,2.8125,0,0,0,0,0
2.862,3,0,0,0,0,0
2.863,2.9375,0,0,0,0,0
2.864,2.5625,0,0,0,0,0
2.865,1.875,0,0,0,0,0
2.866,3.0625,0,0,0,0,0
2.867,3.75,0,0,0,0,0
2.868,3.4375,0,0,0,0,0
2.869,2.8125,0,0,0,0,0
2.87,2.875,0,0,0,0,0
2.871,3.125,0,0,0,0,0
2.872,3.5,0,0,0,0,0
2.873,3.5625,0,0,0,0,0
2.874,3.0625,0,0,0,0,0
2.875,3.125,0,0,0,0,0
2.876,3.4375,0,0,0,0,0
2.877,3.25,0,0,0,0,0
2.878,3.375,0,0,0,0,0
2.879,3.75,0,0,0,0,0
2.88,3.6875,0,0,0,0,0
2.881,4.1875,0,0,0,0,0
2.882,4.1875,0,0,0,0,0
2.883,4.6875,0,0,0,0,0
2.884,4.875,0,0,0,0,0
2.885,4.8125,0,0,0,0,0
2.886,4.8125,0,0,0,0,0
2.887,5.4375,0,0,0,0,0
2.888,6.1875,0,0,0,0,0
2.889,6.0625,0,0,0,0,0
2.89,5.25,0,0,0,0,0
2.891,5.125,0,0,0,0,0
2.892,5.3125,0,0,0,0,0
2.893,4.6875,0,0,0,0,0
2.894,4.0625,0,0,0,0,0
2.895,3.5625,0,0,0,0,0
2.896,3.3125,0,0,0,0,0
2.897,2.1875,0,0,0,0,0
2.898,2,0,0,0,0,0
2.899,1.875,0,0,0,0,0
2.9,2.3125,0,0,0,0,0
2.901,2.625,0,0,0,0,0
2.902,2.625,0,0,0,0,0
2.903,2.8125,0,0,0,0,0
2.904,2.9375,0,0,0,0,0
2.905,2.9375,0,0,0,0,0
2.906,3.1875,0,0,0,0,0
2.907,3.4375,0,0,0,0,0
2.908,4,0,0,0,0,0
2.909,4.375,0,0,0,0,0
2.91,4.3125,0,0,0,0,0
2.911,3.875,0,0,0,0,0
2.912,3.125,0,0,0,0,0
2.913,2.9375,0,0,0,0,0
2.914,2.8125,0,0,0,0,0
2.915,2.9375,0,0,0,0,0
2.916,3.125,0,0,0,0,0
2.917,2.3125,0,0,0,0,0
2.918,1.8125,0,0,0,0,0
2.919,1.6875,0,0,0,0,0
2.92,1.625,0,0,0,0,0
2.921,1.25,0,0,0,0,0
2.922,1.625,0,0,0,0,0
2.923,1.5625,0,0,0,0,0
2.924,0.9375,0,0,0,0,0
2.925,0.9375,0,0,0,0,0
2.926,1.125,0,0,0,0,0
2.927,1.0625,0,0,0,0,0
2.928,1.3125,0,0,0,0,0
2.929,1.0625,0,0,0,0,0
2.93,1.5,0,0,0,0,0
2.931,1.375,0,0,0,0,0
2.932,1.75,0,0,0,0,0
2.933,1.6875,0,0,0,0,0
2.934,1.625,0,0,0,0,0
2.935,1.875,0,0,0,0,0
2.936,1.375,0,0,0,0,0
2.937,1.25,0,0,0,0,0
2.938,0.625,0,0,0,0,0
2.939,-0.1875,0,0,0,0,0
2.94,0.875,0,0,0,0,0
2.941,1.375,0,0,0,0,0
2.942,0.75,0,0,0,0,0
2.943,0.75,0,0,0,0,0
2.944,0.8125,0,0,0,0,0
2.945,0.75,0,0,0,0,0
2.946,1.1875,0,0,0,0,0
2.947,1.375,0,0,0,0,0
2.948,1.25,0,0,0,0,0
2.949,0.9375,0,0,0,0,0
2.95,0.875,0,0,0,0,0
2.951,0.4375,0,0,0,0,0
2.952,0,0,0,0,0,0
2.953,0.125,0,0,0,0,0
2.954,-0.5,0,0,0,0,0
2.955,-0.5,0,0,0,0,0
2.956,0,0,0,0,0,0
2.957,-0.3125,0,0,0,0,0
2.958,0.5,0,0,0,0,0
2.959,0.625,0,0,0,0,0
2.96,0.3125,0,0,0,0,0
2.961,0.75,0,0,0,0,0
2.962,0.625,0,0,0,0,0
2.963,0.625,0,0,0,0,0
2.964,0.9375,0,0,0,0,0
2.965,1.25,0,0,0,0,0
2.966,0.875,0,0,0,0,0
2.967,1.375,0,0,0,0,0
2.968,1.125,0,0,0,0,0
2.969,1.0625,0,0,0,0,0
2.97,0.5,0,0,0,0,0
2.971,1.0625,0,0,0,0,0
2.972,1.25,0,0,0,0,0
2.973,1.0625,0,0,0,0,0
2.974,1.125,0,0,0,0,0
2.975,0.9375,0,0,0,0,0
2.976,1.375,0,0,0,0,0
2.977,1.375,0,0,0,0,0
2.978,1.25,0,0,0,0,0
2.979,1.5625,0,0,0,0,0
2.98,1.8125,0,0,0,0,0
2.981,1.25,0,0,0,0,0
2.982,1.625,0,0,0,0,0
2.983,2,0,0,0,0,0
2.984,2.1875,0,0,0,0,0
2.985,1.875,0,0,0,0,0
2.986,1.6875,0,0,0,0,0
2.987,0.75,0,0,0,0,0
2.988,0.75,0,0,0,0,0
2.989,0.9375,0,0,0,0,0
2.99,1.3125,0,0,0,0,0
2.991,1.375,0,0,0,0,0
2.992,1.3125,0,0,0,0,0
2.993,1.375,0,0,0,0,0
2.994,1.5,0,0,0,0,0
2.995,1.875,0,0,0,0,0
2.996,1.5,0,0,0,0,0
2.997,1.25,0,0,0,0,0
2.998,1.375,0,0,0,0,0
2.999,2.5,0,0,0,0,0
3,2.125,0,0,0,0,0
3.001,1.875,0,0,0,0,0
3.002,2.5,0,0,0,0,0
3.003,2.1875,0,0,0,0,0
3.004,2.375,0,0,0,0,0
3.005,2.5,0,0,0,0,0
3.006,3.1875,0,0,0,0,0
3.007,3.875,0,0,0,0,0
3.008,3.3125,1,0,0,0,0
3.009,3.5625,0,0,0,0,0
3.01,3.125,0,0,0,0,0
3.011,3.25,0,0,0,0,0
3.012,3.4375,0,0,0,0,0
3.013,3.5625,0,0,0,0,0
3.014,3.75,0,0,0,0,0
3.015,4.5,0,0,0,0,0
3.016,5.3125,0,0,0,0,0
3.017,5.625,0,0,0,0,0
3.018,6.6875,0,0,0,0,0
3.019,7.8125,0,0,0,0,0
3.02,9.0625,0,0,0,0,0
3.021,10.313,0,0,0,0,0
3.022,11.938,0,0,0,0,0
3.023,13.25,0,0,0,0,0
3.024,14.188,0,0,0,0,0
3.025,15.438,0,0,0,0,0
3.026,17.563,0,0,0,0,0
3.027,18.875,0,0,0,0,0
3.028,20.625,0,0,0,0,0
3.029,22.188,0,0,0,0,0
3.03,25.125,0,0,0,0,0
3.031,27.938,0,0,0,0,0
3.032,30.438,0,0,0,0,0
3.033,32.813,0,0,0,0,0
3.034,35.625,0,0,0,0,0
3.035,38.563,0,0,0,0,0
3.036,41.063,0,0,0,0,0
3.037,43.75,0,0,0,0,0
3.038,46.625,0,0,0,0,0
3.039,50,0,0,0,0,0
3.04,52.563,0,0,0,0,0
3.041,54.688,0,0,0,0,0
3.042,56.25,0,0,0,0,0
3.043,56.563,0,0,0,0,0
3.044,56.5,0,0,0,0,0
3.045,56.875,0,0,0,0,0
3.046,57.688,0,0,0,0,0
3.047,58.438,0,0,0,0,0
3.048,59.313,0,0,0,0,0
3.049,59.813,0,0,0,0,0
3.05,59.625,0,0,0,0,0
3.051,60,0,0,0,0,0
3.052,60.625,0,0,0,0,0
3.053,61.25,0,0,0,0,0
3.054,62.25,0,0,0,0,0
3.055,62.813,0,0,0,0,0
3.056,63.313,0,1,0,0,0
3.057,62.938,0,0,0,0,0
3.058,61.688,0,0,0,0,0
3.059,58.25,0,0,0,0,0
3.06,53.875,0,0,0,0,0
3.061,49.5,0,0,0,0,0
3.062,44.25,0,0,0,0,0
3.063,39.688,0,0,0,0,0
3.064,35.125,0,0,0,0,0
3.065,31.063,0,0,0,0,0
3.066,27.813,0,0,0,0,0
3.067,25.125,0,0,0,0,0
3.068,24.563,0,0,0,0,0
3.069,23.875,0,0,0,0,0
3.07,23.375,0,0,0,0,0
3.071,21.375,0,0,0,0,0
3.072,18.125,0,0,0,0,0
3.073,15.625,0,0,0,0,0
3.074,12.563,0,0,0,0,0
3.075,10.313,0,0,0,0,0
3.076,8.0625,0,0,0,0,0
3.077,5.75,0,0,0,0,0
3.078,5.375,0,0,0,0,0
3.079,4.5,0,0,0,0,0
3.08,4.125,0,0,0,0,0
3.081,3.75,0,0,0,0,0
3.082,3.375,0,0,0,0,0
3.083,3.4375,0,0,0,0,0
3.084,2.5,0,0,0,0,0
3.085,1.6875,0,0,0,0,0
3.086,1.875,0,0,0,0,0
3.087,1.375,0,0,0,0,0
3.088,0.0625,0,0,0,0,0
3.089,-0.9375,0,0,1,0,0
3.09,-1.25,0,0,0,0,0
3.091,-0.5,0,0,0,0,0
3.092,0.0625,0,0,0,0,0
3.093,0.4375,0,0,0,0,0
3.094,0.1875,0,0,0,0,0
3.095,-0.5,0,0,0,0,0
3.096,-0.9375,0,0,0,0,0
3.097,-1.75,0,0,0,0,0
3.098,-1.75,0,0,0,0,0
3.099,-2.0625,0,0,0,0,0
3.1,-2,0,0,0,0,0
3.101,-1.75,0,0,0,0,0
3.102,-1.75,0,0,0,0,0
3.103,-0.8125,0,0,0,0,0
3.104,-0.125,0,0,0,0,0
3.105,0.3125,0,0,0,0,0
3.106,-0.1875,0,0,0,0,0
3.107,-0.3125,0,0,0,0,0
3.108,0.375,0,0,0,0,0
3.109,0.625,0,0,0,0,0
3.11,0.5625,0,0,0,0,0
3.111,0,0,0,0,0,0
3.112,0.875,0,0,0,0,0
3.113,0.9375,0,0,0,0,0
3.114,-0.3125,0,0,0,0,0
3.115,-0.1875,0,0,0,0,0
3.116,-1.3125,0,0,0,0,0
3.117,-2.0625,0,0,0,0,0
3.118,-1.5625,0,0,0,0,0
3.119,-1.75,0,0,0,0,0
3.12,-1.125,0,0,0,0,0
3.121,-1.125,0,0,0,0,0
3.122,-1.875,0,0,0,0,0
3.123,-1.875,0,0,0,0,0
3.124,-1.1875,0,0,0,0,0
3.125,-1.4375,0,0,0,0,0
3.126,-0.875,0,0,0,0,0
3.127,-0.5,0,0,0,0,0
3.128,-0.125,0,0,0,0,0
3.129,0,0,0,0,0,0
3.13,-0.125,0,0,0,0,0
3.131,0,0,0,0,0,0
3.132,0.125,0,0,0,0,0
3.133,0.625,0,0,0,0,0
3.134,0.0625,0,0,0,0,0
3.135,0.125,0,0,0,0,0
3.136,-0.0625,0,0,0,0,0
3.137,0,0,0,0,0,0
3.138,0.0625,0,0,0,0,0
3.139,0,0,0,0,0,0
3.14,-0.125,0,0,0,0,0
3.141,0,0,0,0,0,0
3.142,0.1875,0,0,0,0,0
3.143,0,0,0,0,0,0
3.144,-0.875,0,0,0,0,0
3.145,-1.75,0,0,0,0,0
3.146,-2.125,0,0,0,0,0
3.147,-2.5,0,0,0,0,0
3.148,-1.8125,0,0,0,0,0
3.149,-1.5625,0,0,0,0,0
3.15,-1.5625,0,0,0,0,0
3.151,-1.4375,0,0,0,0,0
3.152,-1.375,0,0,0,0,0
3.153,-1.5625,0,0,0,0,0
3.154,-0.5,0,0,0,0,0
3.155,0.125,0,0,0,0,0
3.156,-0.3125,0,0,0,0,0
3.157,-0.8125,0,0,0,0,0
3.158,-0.375,0,0,0,0,0
3.159,-0.9375,0,0,0,0,0
3.16,-1,0,0,0,0,0
3.161,-0.9375,0,0,0,0,0
3.162,-1.5,0,0,0,0,0
3.163,-1.4375,0,0,0,0,0
3.164,-1.4375,0,0,0,0,0
3.165,-2.0625,0,0,0,0,0
3.166,-1.8125,0,0,0,0,0
3.167,-1.125,0,0,0,0,0
3.168,-1.5625,0,0,0,0,0
3.169,-1.4375,0,0,0,0,0
3.17,-0.625,0,0,0,0,0
3.171,-0.625,0,0,0,0,0
3.172,-0.5625,0,0,0,0,0
3.173,-0.1875,0,0,0,0,0
3.174,-0.5,0,0,0,0,0
3.175,-0.8125,0,0,0,0,0
3.176,-1,0,0,0,0,0
3.177,-1.125,0,0,0,0,0
3.178,-1.5625,0,0,0,0,0
3.179,-0.9375,0,0,0,0,0
3.18,-1.4375,0,0,0,0,0
3.181,-1.75,0,0,0,0,0
3.182,-1.125,0,0,0,0,0
3.183,-1.125,0,0,0,0,0
3.184,-1,0,0,0,0,0
3.185,-0.9375,0,0,0,0,0
3.186,-0.875,0,0,0,0,0
3.187,-0.625,0,0,0,0,0
3.188,-0.8125,0,0,0,0,0
3.189,-0.625,0,0,0,0,0
3.19,-0.25,0,0,0,0,0
3.191,-0.3125,0,0,0,0,0
3.192,0.75,0,0,0,0,0
3.193,1.375,0,0,0,0,0
3.194,0.4375,0,0,0,0,0
3.195,-0.3125,0,0,0,0,0
3.196,-0.5625,0,0,0,0,0
3.197,-0.625,0,0,0,0,0
3.198,-0.375,0,0,0,0,0
3.199,0,0,0,0,0,0
3.2,0.0625,0,0,0,0,0
3.201,-0.3125,0,0,0,0,0
3.202,-0.9375,0,0,0,0,0
3.203,-1.125,0,0,0,0,0
3.204,-1.625,0,0,0,0,0
3.205,-0.9375,0,0,0,0,0
3.206,-0.8125,0,0,0,0,0
3.207,-0.8125,0,0,0,0,0
3.208,-0.5625,0,0,0,0,0
3.209,-0.625,0,0,0,0,0
3.21,-1.125,0,0,0,0,0
3.211,-1.125,0,0,0,0,0
3.212,-1.5625,0,0,0,0,0
3.213,-2.1875,0,0,0,0,0
3.214,-2.5,0,0,0,0,0
3.215,-2.5,0,0,0,0,0
3.216,-2.6875,0,0,0,0,0
3.217,-3.3125,0,0,0,0,0
3.218,-2.6875,0,0,0,0,0
3.219,-2.5,0,0,0,0,0
3.22,-2,0,0,0,0,0
3.221,-1.75,0,0,0,0,0
3.222,-1.75,0,0,0,0,0
3.223,-1.4375,0,0,0,0,0
3.224,-1.3125,0,0,0,0,0
3.225,-1.875,0,0,0,0,0
3.226,-1.25,0,0,0,0,0
3.227,-0.8125,0,0,0,0,0
3.228,-0.8125,0,0,0,0,0
3.229,-0.5,0,0,0,0,0
3.23,-0.875,0,0,0,0,0
3.231,-0.9375,0,0,0,0,0
3.232,-0.9375,0,0,0,0,0
3.233,-1.4375,0,0,0,0,0
3.234,-1.4375,0,0,0,0,0
3.235,-2.0625,0,0,0,0,0
3.236,-1.875,0,0,0,0,0
3.237,-2.5,0,0,0,0,0
3.238,-1.375,0,0,0,0,0
3.239,-1.125,0,0,0,0,0
3.24,-1.4375,0,0,0,0,0
3.241,-1.4375,0,0,0,0,0
3.242,-2.875,0,0,0,0,0
3.243,-2.5,0,0,0,0,0
3.244,-2.4375,0,0,0,0,0
3.245,-2.375,0,0,0,0,0
3.246,-2.5625,0,0,0,0,0
3.247,-2.1875,0,0,0,0,0
3.248,-1.4375,0,0,0,0,0
3.249,-1.5625,0,0,0,0,0
3.25,-1.875,0,0,0,0,0
3.251,-1.875,0,0,0,0,0
3.252,-1.8125,0,0,0,0,0
3.253,-2.375,0,0,0,0,0
3.254,-2.6875,0,0,0,0,0
3.255,-2.375,0,0,0,0,0
3.256,-2.3125,0,0,0,0,0
3.257,-3.3125,0,0,0,0,0
3.258,-2.875,0,0,0,0,0
3.259,-2.6875,0,0,0,0,0
3.26,-2.9375,0,0,0,0,0
3.261,-1.75,0,0,0,0,0
3.262,-2.4375,0,0,0,0,0
3.263,-2.1875,0,0,0,0,0
3.264,-2,0,0,0,0,0
3.265,-2.1875,0,0,0,0,0
3.266,-1.75,0,0,0,0,0
3.267,-1.5625,0,0,0,0,0
3.268,-1.625,0,0,0,0,0
3.269,-1.25,0,0,0,0,0
3.27,-1.375,0,0,0,0,0
3.271,-1.4375,0,0,0,0,0
3.272,-1.9375,0,0,0,0,0
3.273,-1.875,0,0,0,0,0
3.274,-2.25,0,0,0,0,0
3.275,-2.375,0,0,0,0,0
3.276,-2.0625,0,0,0,0,0
3.277,-2.0625,0,0,0,0,0
3.278,-2,0,0,0,0,0
3.279,-2.0625,0,0,0,0,0
3.28,-2.3125,0,0,0,0,0
3.281,-2.1875,0,0,0,0,0
3.282,-2,0,0,0,0,0
3.283,-2.375,0,0,0,0,0
3.284,-3.125,0,0,0,0,0
3.285,-2.6875,0,0,0,0,0
3.286,-2.4375,0,0,0,0,0
3.287,-1.75,0,0,0,0,0
3.288,-1.875,0,0,0,0,0
3.289,-1.75,0,0,0,0,0
3.29,-1.5625,0,0,0,0,0
3.291,-2.1875,0,0,0,0,0
3.292,-2.375,0,0,0,0,0
3.293,-2.6875,0,0,0,0,0
3.294,-3.125,0,0,0,0,0
3.295,-3.4375,0,0,0,0,0
3.296,-2.25,0,0,0,0,0
3.297,-2.0625,0,0,0,0,0
3.298,-2.1875,0,0,0,0,0
3.299,-1.75,0,0,0,0,0
3.3,-2.1875,0,0,0,0,0
3.301,-1.75,0,0,0,0,0
3.302,-1.5625,0,0,0,0,0
3.303,-1.875,0,0,0,0,0
3.304,-1.8125,0,0,0,0,0
3.305,-2.0625,0,0,0,0,0
3.306,-2.0625,0,0,0,0,0
3.307,-2.375,0,0,0,0,0
3.308,-2,0,0,0,0,0
3.309,-2.1875,0,0,0,0,0
3.31,-2.4375,0,0,0,0,0
3.311,-3,0,0,0,0,0
3.312,-3.25,0,0,0,0,0
3.313,-3.75,0,0,0,0,0
3.314,-3,0,0,0,0,0
3.315,-2.375,0,0,0,0,0
3.316,-3.0625,0,0,0,0,0
3.317,-3.625,0,0,0,0,0
3.318,-3.625,0,0,0,0,0
3.319,-4.0625,0,0,0,0,0
3.32,-4.0625,0,0,0,0,0
3.321,-3.4375,0,0,0,0,0
3.322,-3.375,0,0,0,0,0
3.323,-3.125,0,0,0,0,0
3.324,-3.4375,0,0,0,0,0
3.325,-3.3125,0,0,0,0,0
3.326,-3.25,0,0,0,0,0
3.327,-3.3125,0,0,0,0,0
3.328,-3.0625,0,0,0,0,0
3.329,-2.8125,0,0,0,0,0
3.33,-2.8125,0,0,0,0,0
3.331,-3,0,0,0,0,0
3.332,-2.9375,0,0,0,0,0
3.333,-3.3125,0,0,0,0,0
3.334,-3,0,0,0,0,0
3.335,-3.125,0,0,0,0,0
3.336,-4,0,0,0,0,0
3.337,-5,0,0,0,0,0
3.338,-5.125,0,0,0,0,0
3.339,-5.1875,0,0,0,0,0
3.34,-4.625,0,0,0,0,0
3.341,-4.375,0,0,0,0,0
3.342,-4.6875,0,0,0,0,0
3.343,-4.5625,0,0,0,0,0
3.344,-4.625,0,0,0,0,0
3.345,-5.1875,0,0,0,0,0
3.346,-5.5,0,0,0,0,0
3.347,-5.625,0,0,0,0,0
3.348,-4.0625,0,0,0,0,0
3.349,-3.625,0,0,0,0,0
3.35,-3.5,0,0,0,0,0
3.351,-3.625,0,0,0,0,0
3.352,-4.0625,0,0,0,0,0
3.353,-4.6875,0,0,0,0,0
3.354,-4.0625,0,0,0,0,0
3.355,-3.75,0,0,0,0,0
3.356,-4.1875,0,0,0,0,0
3.357,-4.875,0,0,0,0,0
3.358,-4.8125,0,0,0,0,0
3.359,-5,0,0,0,0,0
3.36,-4.875,0,0,0,0,0
3.361,-4.6875,0,0,0,0,0
3.362,-4.8125,0,0,0,1,0
3.363,-4.875,0,0,0,0,0
3.364,-4.6875,0,0,0,0,0
3.365,-5,0,0,0,0,0
3.366,-5.4375,0,0,0,0,0
3.367,-5.1875,0,0,0,0,0
3.368,-4.8125,0,0,0,0,0
3.369,-4.5625,0,0,0,0,0
3.37,-4.9375,0,0,0,0,0
3.371,-5.1875,0,0,0,0,0
3.372,-4.8125,0,0,0,0,0
3.373,-4.5625,0,0,0,0,0
3.374,-4.3125,0,0,0,0,0
3.375,-3.75,0,0,0,0,0
3.376,-4,0,0,0,0,0
3.377,-4.0625,0,0,0,0,0
3.378,-4.1875,0,0,0,0,0
3.379,-3.9375,0,0,0,0,0
3.38,-3.3125,0,0,0,0,0
3.381,-2.5,0,0,0,0,0
3.382,-2.25,0,0,0,0,0
3.383,-2.5,0,0,0,0,0
3.384,-2.9375,0,0,0,0,0
3.385,-3.4375,0,0,0,0,0
3.386,-3.625,0,0,0,0,0
3.387,-3.3125,0,0,0,0,0
3.388,-3,0,0,0,0,0
3.389,-3,0,0,0,0,0
3.39,-2.4375,0,0,0,0,0
3.391,-2.1875,0,0,0,0,0
3.392,-2,0,0,0,0,0
3.393,-1.875,0,0,0,0,0
3.394,-1.5625,0,0,0,0,0
3.395,-1.5625,0,0,0,0,0
3.396,-1.4375,0,0,0,0,0
3.397,-1.5625,0,0,0,0,0
3.398,-1.375,0,0,0,0,0
3.399,-0.9375,0,0,0,0,0
3.4,-0.625,0,0,0,0,0
3.401,0.125,0,0,0,0,0
3.402,-0.0625,0,0,0,0,0
3.403,0,0,0,0,0,0
3.404,0.0625,0,0,0,0,0
3.405,-0.8125,0,0,0,0,0
3.406,-1.375,0,0,0,0,0
3.407,-0.9375,0,0,0,0,0
3.408,-0.4375,0,0,0,0,0
3.409,0.4375,0,0,0,0,0
3.41,-0.25,0,0,0,0,0
3.411,-0.5,0,0,0,0,0
3.412,-0.25,0,0,0,0,0
3.413,0.125,0,0,0,0,0
3.414,1,0,0,0,0,0
3.415,1.375,0,0,0,0,0
3.416,1.375,0,0,0,0,0
3.417,1.6875,0,0,0,0,0
3.418,1.5625,0,0,0,0,0
3.419,1.6875,0,0,0,0,0
3.42,1.875,0,0,0,0,0
3.421,2.1875,0,0,0,0,0
3.422,1.6875,0,0,0,0,0
3.423,1.375,0,0,0,0,0
3.424,1.875,0,0,0,0,0
3.425,1.6875,0,0,0,0,0
3.426,2,0,0,0,0,0
3.427,1.875,0,0,0,0,0
3.428,2.0625,0,0,0,0,0
3.429,2.1875,0,0,0,0,0
3.43,2.3125,0,0,0,0,0
3.431,2.1875,0,0,0,0,0
3.432,2.625,0,0,0,0,0
3.433,2.5,0,0,0,0,0
3.434,2.0625,0,0,0,0,0
3.435,2.5,0,0,0,0,0
3.436,2.25,0,0,0,0,0
3.437,2.3125,0,0,0,0,0
3.438,1.8125,0,0,0,0,0
3.439,2,0,0,0,0,0
3.44,1.9375,0,0,0,0,0
3.441,2.1875,0,0,0,0,0
3.442,2.5625,0,0,0,0,0
3.443,2.625,0,0,0,0,0
3.444,3.125,0,0,0,0,0
3.445,3.25,0,0,0,0,0
3.446,2.9375,0,0,0,0,0
3.447,3.5625,0,0,0,0,0
3.448,3.625,0,0,0,0,0
3.449,3.25,0,0,0,0,0
3.45,2.875,0,0,0,0,0
3.451,2.8125,0,0,0,0,0
3.452,3.75,0,0,0,0,0
3.453,4.375,0,0,0,0,0
3.454,4.3125,0,0,0,0,0
3.455,4.1875,0,0,0,0,0
3.456,3.8125,0,0,0,0,0
3.457,3.25,0,0,0,0,0
3.458,2.5,0,0,0,0,0
3.459,1.5625,0,0,0,0,0
3.46,1.125,0,0,0,0,0
3.461,0.625,0,0,0,0,0
3.462,0,0,0,0,0,0
3.463,-0.1875,0,0,0,0,0
3.464,-0.4375,0,0,0,0,0
3.465,-0.1875,0,0,0,0,0
3.466,0.75,0,0,0,0,0
3.467,1.875,0,0,0,0,0
3.468,2.375,0,0,0,0,0
3.469,2,0,0,0,0,0
3.47,2.125,0,0,0,0,0
3.471,2.3125,0,0,0,0,0
3.472,3.0625,0,0,0,0,0
3.473,2.9375,0,0,0,0,0
3.474,3.25,0,0,0,0,0
3.475,3.125,0,0,0,0,0
3.476,3.3125,0,0,0,0,0
3.477,2.9375,0,0,0,0,0
3.478,3.0625,0,0,0,0,0
3.479,2.9375,0,0,0,0,0
3.48,3.0625,0,0,0,0,0
3.481,2.5,0,0,0,0,0
3.482,2.125,0,0,0,0,0
3.483,2.1875,0,0,0,0,0
3.484,2.625,0,0,0,0,0
3.485,2.8125,0,0,0,0,0
3.486,3.25,0,0,0,0,0
3.487,2.9375,0,0,0,0,0
3.488,2.875,0,0,0,0,0
3.489,2.8125,0,0,0,0,0
3.49,2.6875,0,0,0,0,0
3.491,2.8125,0,0,0,0,0
3.492,3.125,0,0,0,0,0
3.493,2.625,0,0,0,0,0
3.494,2.5,0,0,0,0,0
3.495,1.875,0,0,0,0,0
3.496,1.8125,0,0,0,0,0
3.497,1.25,0,0,0,0,0
3.498,1.125,0,0,0,0,0
3.499,1.25,0,0,0,0,0
3.5,1.25,0,0,0,0,0
3.501,1.375,0,0,0,0,0
3.502,1.5625,0,0,0,0,0
3.503,1.6875,0,0,0,0,0
3.504,1.0625,0,0,0,0,0
3.505,1.0625,0,0,0,0,0
3.506,1,0,0,0,0,0
3.507,2,0,0,0,0,0
3.508,2.6875,0,0,0,0,0
3.509,2.8125,0,0,0,0,0
3.51,2.4375,0,0,0,0,0
3.511,2.3125,0,0,0,0,0
3.512,1.6875,0,0,0,0,0
3.513,2,0,0,0,0,0
3.514,1.875,0,0,0,0,0
3.515,1.6875,0,0,0,0,0
3.516,1.4375,0,0,0,0,0
3.517,2,0,0,0,0,0
3.518,1.6875,0,0,0,0,0
3.519,2.1875,0,0,0,0,0
3.52,1.9375,0,0,0,0,0
3.521,1.375,0,0,0,0,0
3.522,1.5,0,0,0,0,0
3.523,1.6875,0,0,0,0,0
3.524,1.4375,0,0,0,0,0
3.525,1.25,0,0,0,0,0
3.526,1.5625,0,0,0,0,0
3.527,1.5625,0,0,0,0,0
3.528,1.625,0,0,0,0,0
3.529,1.6875,0,0,0,0,0
3.53,1.5,0,0,0,0,0
3.531,1.0625,0,0,0,0,0
3.532,0.6875,0,0,0,0,0
3.533,0.75,0,0,0,0,0
3.534,1.4375,0,0,0,0,0
3.535,1.0625,0,0,0,0,0
3.536,1.5,0,0,0,0,0
3.537,1.875,0,0,0,0,0
3.538,1.4375,0,0,0,0,0
3.539,1.375,0,0,0,0,0
3.54,1.5,0,0,0,0,0
3.541,1.25,0,0,0,0,0
3.542,1.4375,0,0,0,0,0
3.543,1.0625,0,0,0,0,0
3.544,1.25,0,0,0,0,0
3.545,1.25,0,0,0,0,0
3.546,1.375,0,0,0,0,0
3.547,1.875,0,0,0,0,0
3.548,2.0625,0,0,0,0,0
3.549,2,0,0,0,0,0
3.55,1.625,0,0,0,0,0
3.551,1.0625,0,0,0,0,0
3.552,0.1875,0,0,0,0,0
3.553,-0.5,0,0,0,0,0
3.554,-0.0625,0,0,0,0,0
3.555,-0.1875,0,0,0,0,0
3.556,-0.625,0,0,0,0,0
3.557,-0.8125,0,0,0,0,0
3.558,-1.125,0,0,0,0,0
3.559,-0.9375,0,0,0,0,0
3.56,-0.5,0,0,0,0,0
3.561,-0.8125,0,0,0,0,0
3.562,-0.5,0,0,0,0,0
3.563,0,0,0,0,0,1
3.564,0.0625,0,0,0,0,0
3.565,0.625,0,0,0,0,0
3.566,0.1875,0,0,0,0,0
3.567,0.4375,0,0,0,0,0
3.568,0.375,0,0,0,0,0
3.569,0.3125,0,0,0,0,0
3.57,0.4375,0,0,0,0,0
3.571,0.4375,0,0,0,0,0
3.572,0.625,0,0,0,0,0
3.573,1.0625,0,0,0,0,0
3.574,0.9375,0,0,0,0,0
3.575,1.375,0,0,0,0,0
3.576,1.0625,0,0,0,0,0
3.577,0.75,0,0,0,0,0
3.578,1.125,0,0,0,0,0
3.579,1.0625,0,0,0,0,0
3.58,0.875,0,0,0,0,0
3.581,0.4375,0,0,0,0,0
3.582,-0.6875,0,0,0,0,0
3.583,-1.4375,0,0,0,0,0
3.584,-1.1875,0,0,0,0,0
3.585,-0.5,0,0,0,0,0
3.586,-0.8125,0,0,0,0,0
3.587,-0.625,0,0,0,0,0
3.588,0.125,0,0,0,0,0
3.589,0.625,0,0,0,0,0
3.59,0.6875,0,0,0,0,0
3.591,0.4375,0,0,0,0,0
3.592,0,0,0,0,0,0
3.593,-0.3125,0,0,0,0,0
3.594,0.125,0,0,0,0,0
3.595,0.125,0,0,0,0,0
3.596,0.25,0,0,0,0,0
3.597,0.125,0,0,0,0,0
3.598,0.75,0,0,0,0,0
3.599,0.9375,0,0,0,0,0
3.6,1.375,0,0,0,0,0
3.601,1.875,0,0,0,0,0
3.602,1.9375,0,0,0,0,0
3.603,1.875,0,0,0,0,0
3.604,1.4375,0,0,0,0,0
3.605,0.9375,0,0,0,0,0
3.606,1.1875,0,0,0,0,0
3.607,0.9375,0,0,0,0,0
3.608,0.6875,0,0,0,0,0
3.609,1.0625,0,0,0,0,0
3.61,1.5,0,0,0,0,0
3.611,0.9375,0,0,0,0,0
3.612,1,0,0,0,0,0
3.613,0.9375,0,0,0,0,0
3.614,0.6875,0,0,0,0,0
3.615,0.9375,0,0,0,0,0
3.616,0.6875,0,0,0,0,0
3.617,0.125,0,0,0,0,0
3.618,-0.3125,0,0,0,0,0
3.619,-0.8125,0,0,0,0,0
3.62,-1.1875,0,0,0,0,0
3.621,-0.9375,0,0,0,0,0
3.622,-0.25,0,0,0,0,0
3.623,0,0,0,0,0,0
3.624,-0.3125,0,0,0,0,0
3.625,-0.5,0,0,0,0,0
3.626,0.1875,0,0,0,0,0
3.627,0.125,0,0,0,0,0
3.628,-0.25,0,0,0,0,0
3.629,0,0,0,0,0,0
3.63,0.0625,0,0,0,0,0
3.631,0.4375,0,0,0,0,0
3.632,0.875,0,0,0,0,0
3.633,0.75,0,0,0,0,0
3.634,0.875,0,0,0,0,0
3.635,0.9375,0,0,0,0,0
3.636,0.8125,0,0,0,0,0
3.637,0.75,0,0,0,0,0
3.638,0.3125,0,0,0,0,0
3.639,0,0,0,0,0,0
3.64,0.625,0,0,0,0,0
3.641,0.625,0,0,0,0,0
3.642,0.375,0,0,0,0,0
3.643,0.625,0,0,0,0,0
3.644,0.8125,0,0,0,0,0
3.645,0.625,0,0,0,0,0
3.646,0.5625,0,0,0,0,0
3.647,0.125,0,0,0,0,0
3.648,0.625,0,0,0,0,0
3.649,1.0625,0,0,0,0,0
3.65,0.9375,0,0,0,0,0
3.651,0.75,0,0,0,0,0
3.652,0.875,0,0,0,0,0
3.653,1.0625,0,0,0,0,0
3.654,1.5625,0,0,0,0,0
3.655,2.3125,0,0,0,0,0
3.656,1.9375,0,0,0,0,0
3.657,1.375,0,0,0,0,0
3.658,0.9375,0,0,0,0,0
3.659,-0.3125,0,0,0,0,0
3.66,-0.6875,0,0,0,0,0
3.661,-0.5,0,0,0,0,0
3.662,-0.375,0,0,0,0,0
3.663,-0.625,0,0,0,0,0
3.664,0.125,0,0,0,0,0
3.665,-0.1875,0,0,0,0,0
3.666,-0.4375,0,0,0,0,0
3.667,-0.3125,0,0,0,0,0
3.668,0.6875,0,0,0,0,0
3.669,1.5625,0,0,0,0,0
3.67,1.8125,0,0,0,0,0
3.671,1.5625,0,0,0,0,0
3.672,1.25,0,0,0,0,0
3.673,0.75,0,0,0,0,0
3.674,0.9375,0,0,0,0,0
3.675,1.375,0,0,0,0,0
3.676,1.125,0,0,0,0,0
3.677,1.0625,0,0,0,0,0
3.678,0.5625,0,0,0,0,0
3.679,0.4375,0,0,0,0,0
3.68,0.75,0,0,0,0,0
3.681,1.25,0,0,0,0,0
3.682,1.0625,0,0,0,0,0
3.683,0.75,0,0,0,0,0
3.684,0.4375,0,0,0,0,0
3.685,0.625,0,0,0,0,0
3.686,1.25,0,0,0,0,0
3.687,1.25,0,0,0,0,0
3.688,0.9375,0,0,0,0,0
3.689,1.0625,0,0,0,0,0
3.69,1.25,0,0,0,0,0
3.691,1.6875,0,0,0,0,0
3.692,1.6875,0,0,0,0,0
3.693,1.6875,0,0,0,0,0
3.694,1.875,0,0,0,0,0
3.695,2.1875,0,0,0,0,0
3.696,2.0625,0,0,0,0,0
3.697,1.5625,0,0,0,0,0
3.698,1.125,0,0,0,0,0
3.699,0.4375,0,0,0,0,0
3.7,0.5625,0,0,0,0,0
3.701,0,0,0,0,0,0
3.702,-0.6875,0,0,0,0,0
3.703,-0.3125,0,0,0,0,0
3.704,-0.4375,0,0,0,0,0
3.705,-1.125,0,0,0,0,0
3.706,-0.625,0,0,0,0,0
3.707,-0.3125,0,0,0,0,0
3.708,-0.9375,0,0,0,0,0
3.709,-0.8125,0,0,0,0,0
3.71,-0.625,0,0,0,0,0
3.711,-0.5,0,0,0,0,0
3.712,0.5,0,0,0,0,0
3.713,0.625,0,0,0,0,0
3.714,1.25,0,0,0,0,0
3.715,1.0625,0,0,0,0,0
3.716,1.0625,0,0,0,0,0
3.717,0.4375,0,0,0,0,0
3.718,1.25,0,0,0,0,0
3.719,1.375,0,0,0,0,0
3.72,0.6875,0,0,0,0,0
3.721,0.75,0,0,0,0,0
3.722,0.625,0,0,0,0,0
3.723,0.625,0,0,0,0,0
3.724,0.6875,0,0,0,0,0
3.725,0.9375,0,0,0,0,0
3.726,0.75,0,0,0,0,0
3.727,0.9375,0,0,0,0,0
3.728,1.0625,0,0,0,0,0
3.729,1.0625,0,0,0,0,0
3.73,0.875,0,0,0,0,0
3.731,0.75,0,0,0,0,0
3.732,0.6875,0,0,0,0,0
3.733,0.75,0,0,0,0,0
3.734,0.9375,0,0,0,0,0
3.735,1.375,0,0,0,0,0
3.736,1.6875,0,0,0,0,0
3.737,1.25,0,0,0,0,0
3.738,2.0625,0,0,0,0,0
3.739,2.5,0,0,0,0,0
3.74,2,0,0,0,0,0
3.741,2.625,0,0,0,0,0
3.742,2.5,0,0,0,0,0
3.743,2,0,0,0,0,0
3.744,2.25,0,0,0,0,0
3.745,2.1875,0,0,0,0,0
3.746,2.75,0,0,0,0,0
3.747,3.75,0,0,0,0,0
3.748,3.875,0,0,0,0,0
3.749,3.75,0,0,0,0,0
3.75,2.25,0,0,0,0,0
3.751,1.0625,0,0,0,0,0
3.752,0.625,0,0,0,0,0
3.753,-0.1875,0,0,0,0,0
3.754,-0.375,0,0,0,0,0
3.755,-1.25,0,0,0,0,0
3.756,-0.0625,0,0,0,0,0
3.757,0.3125,0,0,0,0,0
3.758,-0.1875,0,0,0,0,0
3.759,-0.3125,0,0,0,0,0
3.76,-0.25,0,0,0,0,0
3.761,0,0,0,0,0,0
3.762,0.0625,0,0,0,0,0
3.763,0.125,0,0,0,0,0
3.764,0.25,0,0,0,0,0
3.765,-0.1875,0,0,0,0,0
3.766,-0.125,0,0,0,0,0
3.767,0.125,0,0,0,0,0
3.768,0.375,0,0,0,0,0
3.769,0.4375,0,0,0,0,0
3.77,0.8125,0,0,0,0,0
3.771,0.125,0,0,0,0,0
3.772,0.5,0,0,0,0,0
3.773,0.625,0,0,0,0,0
3.774,0.4375,0,0,0,0,0
3.775,0.75,0,0,0,0,0
3.776,0.9375,0,0,0,0,0
3.777,0.9375,0,0,0,0,0
3.778,1.25,0,0,0,0,0
3.779,1.6875,0,0,0,0,0
3.78,1.9375,0,0,0,0,0
3.781,1.5625,0,0,0,0,0
3.782,1.0625,0,0,0,0,0
3.783,1.25,0,0,0,0,0
3.784,1.4375,0,0,0,0,0
3.785,0.9375,0,0,0,0,0
3.786,0.75,0,0,0,0,0
3.787,0.75,0,0,0,0,0
3.788,1.375,0,0,0,0,0
3.789,1.5625,0,0,0,0,0
3.79,1.375,0,0,0,0,0
3.791,1.875,0,0,0,0,0
3.792,1.8125,0,0,0,0,0
3.793,1.375,0,0,0,0,0
3.794,1.375,0,0,0,0,0
3.795,1.5625,0,0,0,0,0
3.796,1.4375,0,0,0,0,0
3.797,1.375,0,0,0,0,0
3.798,0.8125,0,0,0,0,0
3.799,0.4375,0,0,0,0,0
3.8,0.625,0,0,0,0,0
3.801,0.75,0,0,0,0,0
3.802,0.9375,0,0,0,0,0
3.803,1.5625,0,0,0,0,0
3.804,1.4375,0,0,0,0,0
3.805,1.375,0,0,0,0,0
3.806,1.5,0,0,0,0,0
3.807,1.25,0,0,0,0,0
3.808,1.6875,0,0,0,0,0
3.809,2,0,0,0,0,0
3.81,2.625,0,0,0,0,0
3.811,2.3125,0,0,0,0,0
3.812,2.5,0,0,0,0,0
3.813,2.3125,0,0,0,0,0
3.814,2.125,0,0,0,0,0
3.815,2.625,0,0,0,0,0
3.816,2.1875,0,0,0,0,0
3.817,2.1875,0,0,0,0,0
3.818,1.25,0,0,0,0,0
3.819,0.75,0,0,0,0,0
3.82,0.3125,0,0,0,0,0
3.821,0.625,0,0,0,0,0
3.822,0.3125,0,0,0,0,0
3.823,-0.3125,0,0,0,0,0
3.824,-0.0625,0,0,0,0,0
3.825,0.125,0,0,0,0,0
3.826,0.0625,0,0,0,0,0
3.827,0.125,0,0,0,0,0
3.828,0.6875,0,0,0,0,0
3.829,1.25,0,0,0,0,0
3.83,1.0625,0,0,0,0,0
3.831,1.0625,0,0,0,0,0
3.832,0.875,0,0,0,0,0
3.833,1.0625,0,0,0,0,0
3.834,0.6875,0,0,0,0,0
3.835,0.4375,0,0,0,0,0
3.836,1.125,0,0,0,0,0
3.837,0.75,0,0,0,0,0
3.838,0.25,0,0,0,0,0
3.839,0.125,0,0,0,0,0
3.84,0.75,0,0,0,0,0
3.841,1.25,0,0,0,0,0
3.842,1.625,0,0,0,0,0
3.843,1.875,0,0,0,0,0
3.844,1.9375,0,0,0,0,0
3.845,2,0,0,0,0,0
3.846,1.875,0,0,0,0,0
3.847,1.375,0,0,0,0,0
3.848,0.9375,0,0,0,0,0
3.849,0.75,0,0,0,0,0
3.85,0.4375,0,0,0,0,0
3.851,0.625,0,0,0,0,0
3.852,0.375,0,0,0,0,0
3.853,0.625,0,0,0,0,0
3.854,0.9375,0,0,0,0,0
3.855,0.3125,0,0,0,0,0
3.856,0.375,0,0,0,0,0
3.857,0.3125,0,0,0,0,0
3.858,0.5625,0,0,0,0,0
3.859,0.4375,0,0,0,0,0
3.86,1.125,0,0,0,0,0
3.861,1.6875,0,0,0,0,0
3.862,2.875,0,0,0,0,0
3.863,2.9375,0,0,0,0,0
3.864,2.6875,0,0,0,0,0
3.865,2.625,0,0,0,0,0
3.866,2.25,0,0,0,0,0
3.867,2.3125,0,0,0,0,0
3.868,2.625,0,0,0,0,0
3.869,2.5,0,0,0,0,0
3.87,2.4375,0,0,0,0,0
3.871,2.625,0,0,0,0,0
3.872,2.875,0,0,0,0,0
3.873,3.25,0,0,0,0,0
3.874,3,0,0,0,0,0
3.875,2.625,0,0,0,0,0
3.876,3.125,0,0,0,0,0
3.877,3.25,0,0,0,0,0
3.878,2.6875,0,0,0,0,0
3.879,2.3125,0,0,0,0,0
3.88,2.5,0,0,0,0,0
3.881,2.3125,0,0,0,0,0
3.882,1.875,0,0,0,0,0
3.883,1.0625,0,0,0,0,0
3.884,0.8125,0,0,0,0,0
3.885,0.4375,0,0,0,0,0
3.886,0.3125,0,0,0,0,0
3.887,0,0,0,0,0,0
3.888,0.3125,0,0,0,0,0
3.889,0.3125,0,0,0,0,0
3.89,0.6875,0,0,0,0,0
3.891,0.625,0,0,0,0,0
3.892,1.3125,0,0,0,0,0
3.893,1.875,0,0,0,0,0
3.894,1.9375,0,0,0,0,0
3.895,2,0,0,0,0,0
3.896,1.75,0,0,0,0,0
3.897,1.375,0,0,0,0,0
3.898,1.1875,0,0,0,0,0
3.899,2,0,0,0,0,0
3.9,2,0,0,0,0,0
3.901,2,0,0,0,0,0
3.902,2.4375,0,0,0,0,0
3.903,2.625,0,0,0,0,0
3.904,2.6875,0,0,0,0,0
3.905,2.625,0,0,0,0,0
3.906,2.5,0,0,0,0,0
3.907,2.9375,0,0,0,0,0
3.908,2.6875,0,0,0,0,0
3.909,2.625,0,0,0,0,0
3.91,2.8125,0,0,0,0,0
3.911,3.25,0,0,0,0,0
3.912,3,0,0,0,0,0
3.913,3.5625,0,0,0,0,0
3.914,3.375,0,0,0,0,0
3.915,2.8125,0,0,0,0,0
3.916,1.6875,0,0,0,0,0
3.917,1.25,0,0,0,0,0
3.918,1.8125,0,0,0,0,0
3.919,2.3125,0,0,0,0,0
3.92,3,0,0,0,0,0
3.921,3.25,0,0,0,0,0
3.922,3.5625,0,0,0,0,0
3.923,4.0625,0,0,0,0,0
3.924,3.6875,0,0,0,0,0
3.925,3.75,0,0,0,0,0
3.926,4.5,0,0,0,0,0
3.927,4.6875,0,0,0,0,0
3.928,4.6875,0,0,0,0,0
3.929,4.1875,0,0,0,0,0
3.93,3.9375,0,0,0,0,0
3.931,3.4375,0,0,0,0,0
3.932,2.875,0,0,0,0,0
3.933,2.3125,0,0,0,0,0
3.934,2.875,0,0,0,0,0
3.935,3.4375,0,0,0,0,0
3.936,3.0625,0,0,0,0,0
3.937,2.5,0,0,0,0,0
3.938,2.625,0,0,0,0,0
3.939,2.8125,0,0,0,0,0
3.94,2.6875,0,0,0,0,0
3.941,3.25,0,0,0,0,0
3.942,3.8125,0,0,0,0,0
3.943,3.875,0,0,0,0,0
3.944,3.0625,0,0,0,0,0
3.945,3.25,0,0,0,0,0
3.946,3.375,0,0,0,0,0
3.947,3.75,0,0,0,0,0
3.948,4.1875,0,0,0,0,0
3.949,4.0625,0,0,0,0,0
3.95,3.5625,0,0,0,0,0
3.951,3.4375,0,0,0,0,0
3.952,3.1875,0,0,0,0,0
3.953,3.125,0,0,0,0,0
3.954,3.25,0,0,0,0,0
3.955,3.4375,0,0,0,0,0
3.956,3.1875,0,0,0,0,0
3.957,2.9375,0,0,0,0,0
3.958,2.9375,0,0,0,0,0
3.959,2.625,0,0,0,0,0
3.96,2.625,0,0,0,0,0
3.961,2.5,0,0,0,0,0
3.962,2.6875,0,0,0,0,0
3.963,3.125,0,0,0,0,0
3.964,2.875,0,0,0,0,0
3.965,2.5,0,0,0,0,0
3.966,2.4375,0,0,0,0,0
3.967,2.625,0,0,0,0,0
3.968,2.0625,0,0,0,0,0
3.969,2.3125,0,0,0,0,0
3.97,1.5625,0,0,0,0,0
3.971,0.4375,0,0,0,0,0
3.972,0.5625,0,0,0,0,0
3.973,0.75,0,0,0,0,0
3.974,0.4375,0,0,0,0,0
3.975,0.4375,0,0,0,0,0
3.976,-0.1875,0,0,0,0,0
3.977,-0.3125,0,0,0,0,0
3.978,-0.8125,0,0,0,0,0
3.979,-0.8125,0,0,0,0,0
3.98,-0.3125,0,0,0,0,0
3.981,0,0,0,0,0,0
3.982,0.0625,0,0,0,0,0
3.983,-0.1875,0,0,0,0,0
3.984,-0.3125,0,0,0,0,0
3.985,-0.1875,0,0,0,0,0
3.986,0.375,0,0,0,0,0
3.987,1.5625,0,0,0,0,0
3.988,2.1875,0,0,0,0,0
3.989,1.875,0,0,0,0,0
3.99,1.4375,0,0,0,0,0
3.991,1.375,0,0,0,0,0
3.992,1.3125,0,0,0,0,0
3.993,1.375,0,0,0,0,0
3.994,1.5625,0,0,0,0,0
3.995,2,0,0,0,0,0
3.996,2.0625,0,0,0,0,0
3.997,2.5,0,0,0,0,0
3.998,2.8125,0,0,0,0,0
3.999,2.9375,0,0,0,0,0
4,3.625,0,0,0,0,0
4.001,2.8125,0,0,0,0,0
4.002,2.1875,0,0,0,0,0
4.003,2.5,0,0,0,0,0
4.004,1.625,0,0,0,0,0
4.005,1.375,0,0,0,0,0
4.006,0.9375,0,0,0,0,0
4.007,0.3125,0,0,0,0,0
4.008,0.4375,0,0,0,0,0
4.009,0.3125,0,0,0,0,0
4.01,0.25,0,0,0,0,0
4.011,0.125,0,0,0,0,0
4.012,-0.3125,0,0,0,0,0
4.013,-1.125,0,0,0,0,0
4.014,-0.875,0,0,0,0,0
4.015,-0.9375,0,0,0,0,0
4.016,-0.75,0,0,0,0,0
4.017,-1.125,0,0,0,0,0
4.018,-0.8125,0,0,0,0,0
4.019,-0.625,0,0,0,0,0
4.02,0.0625,0,0,0,0,0
4.021,0.75,0,0,0,0,0
4.022,0.9375,0,0,0,0,0
4.023,1.25,0,0,0,0,0
4.024,0.875,0,0,0,0,0
4.025,0.3125,0,0,0,0,0
4.026,0.9375,0,0,0,0,0
4.027,1.875,0,0,0,0,0
4.028,1.3125,0,0,0,0,0
4.029,1.6875,0,0,0,0,0
4.03,2.3125,0,0,0,0,0
4.031,2.5,0,0,0,0,0
4.032,2.0625,0,0,0,0,0
4.033,2.5,0,0,0,0,0
4.034,1.625,0,0,0,0,0
4.035,1.25,0,0,0,0,0
4.036,0.75,0,0,0,0,0
4.037,0.4375,0,0,0,0,0
4.038,0.6875,0,0,0,0,0
4.039,0.9375,0,0,0,0,0
4.04,0.625,0,0,0,0,0
4.041,0.125,0,0,0,0,0
4.042,0.375,0,0,0,0,0
4.043,0.4375,0,0,0,0,0
4.044,0.6875,1,0,0,0,0
4.045,0.75,0,0,0,0,0
4.046,1.75,0,0,0,0,0
4.047,1.375,0,0,0,0,0
4.048,0.9375,0,0,0,0,0
4.049,1.5625,0,0,0,0,0
4.05,1.625,0,0,0,0,0
4.051,2,0,0,0,0,0
4.052,2.25,0,0,0,0,0
4.053,2.625,0,0,0,0,0
4.054,3.3125,0,0,0,0,0
4.055,3.25,0,0,0,0,0
4.056,3.125,0,0,0,0,0
4.057,2.5,0,0,0,0,0
4.058,3.1875,0,0,0,0,0
4.059,3.4375,0,0,0,0,0
4.06,4.125,0,0,0,0,0
4.061,5.125,0,0,0,0,0
4.062,5.9375,0,0,0,0,0
4.063,6.375,0,0,0,0,0
4.064,6.9375,0,0,0,0,0
4.065,7.9375,0,0,0,0,0
4.066,8.875,0,0,0,0,0
4.067,10.125,0,0,0,0,0
4.068,11.688,0,0,0,0,0
4.069,13.25,0,0,0,0,0
4.07,14.188,0,0,0,0,0
4.071,15.125,0,0,0,0,0
4.072,15.188,0,0,0,0,0
4.073,15.938,0,0,0,0,0
4.074,17.813,0,0,0,0,0
4.075,20.313,0,0,0,0,0
4.076,21.625,0,0,0,0,0
4.077,23.875,0,0,0,0,0
4.078,25.688,0,0,0,0,0
4.079,27.813,0,0,0,0,0
4.08,30.375,0,0,0,0,0
4.081,33.25,0,0,0,0,0
4.082,34.875,0,0,0,0,0
4.083,36.063,0,0,0,0,0
4.084,38.375,0,0,0,0,0
4.085,40.313,0,0,0,0,0
4.086,43.188,0,0,0,0,0
4.087,45,0,0,0,0,0
4.088,46.5,0,0,0,0,0
4.089,47.938,0,0,0,0,0
4.09,47.875,0,0,0,0,0
4.091,47.813,0,0,0,0,0
4.092,47.688,0,0,0,0,0
4.093,47.625,0,0,0,0,0
4.094,47.688,0,0,0,0,0
4.095,47.938,0,0,0,0,0
4.096,48.5,0,0,0,0,0
4.097,48.875,0,0,0,0,0
4.098,49.688,0,0,0,0,0
4.099,50.125,0,0,0,0,0
4.1,50.063,0,0,0,0,0
4.101,50.75,0,0,0,0,0
4.102,51.188,0,0,0,0,0
4.103,51.063,0,1,0,0,0
4.104,49.875,0,0,0,0,0
4.105,47.813,0,0,0,0,0
4.106,43.563,0,0,0,0,0
4.107,39.188,0,0,0,0,0
4.108,35.375,0,0,0,0,0
4.109,30.938,0,0,0,0,0
4.11,27.188,0,0,0,0,0
4.111,23.563,0,0,0,0,0
4.112,21.063,0,0,0,0,0
4.113,19.375,0,0,0,0,0
4.114,18.563,0,0,0,0,0
4.115,18.563,0,0,0,0,0
4.116,17.625,0,0,0,0,0
4.117,16.25,0,0,0,0,0
4.118,13.188,0,0,0,0,0
4.119,10.313,0,0,0,0,0
4.12,8.8125,0,0,0,0,0
4.121,7,0,0,0,0,0
4.122,5.5625,0,0,0,0,0
4.123,4.1875,0,0,0,0,0
4.124,2.0625,0,0,0,0,0
4.125,1.375,0,0,0,0,0
4.126,0.6875,0,0,0,0,0
4.127,0.125,0,0,0,0,0
4.128,-0.3125,0,0,0,0,0
4.129,-0.9375,0,0,1,0,0
4.13,-0.8125,0,0,0,0,0
4.131,-0.9375,0,0,0,0,0
4.132,-1.0625,0,0,0,0,0
4.133,-1.125,0,0,0,0,0
4.134,-1.625,0,0,0,0,0
4.135,-1.5625,0,0,0,0,0
4.136,-2.1875,0,0,0,0,0
4.137,-2.8125,0,0,0,0,0
4.138,-1.875,0,0,0,0,0
4.139,-1.75,0,0,0,0,0
4.14,-1.375,0,0,0,0,0
4.141,-0.8125,0,0,0,0,0
4.142,-1,0,0,0,0,0
4.143,-0.625,0,0,0,0,0
4.144,-0.5,0,0,0,0,0
4.145,-0.5,0,0,0,0,0
4.146,-0.6875,0,0,0,0,0
4.147,-0.3125,0,0,0,0,0
4.148,-0.0625,0,0,0,0,0
4.149,-0.5,0,0,0,0,0
4.15,0.125,0,0,0,0,0
4.151,0.125,0,0,0,0,0
4.152,0.125,0,0,0,0,0
4.153,0,0,0,0,0,0
4.154,0.1875,0,0,0,0,0
4.155,1.25,0,0,0,0,0
4.156,1.1875,0,0,0,0,0
4.157,0.9375,0,0,0,0,0
4.158,0,0,0,0,0,0
4.159,0.125,0,0,0,0,0
4.16,0.375,0,0,0,0,0
4.161,0.125,0,0,0,0,0
4.162,1.1875,0,0,0,0,0
4.163,0.9375,0,0,0,0,0
4.164,0.25,0,0,0,0,0
4.165,0.625,0,0,0,0,0
4.166,0.75,0,0,0,0,0
4.167,0.75,0,0,0,0,0
4.168,0.4375,0,0,0,0,0
4.169,0.4375,0,0,0,0,0
4.17,0.75,0,0,0,0,0
4.171,1.25,0,0,0,0,0
4.172,1.3125,0,0,0,0,0
4.173,2,0,0,0,0,0
4.174,2.3125,0,0,0,0,0
4.175,2.5,0,0,0,0,0
4.176,2.4375,0,0,0,0,0
4.177,2.5,0,0,0,0,0
4.178,2.5,0,0,0,0,0
4.179,2.5,0,0,0,0,0
4.18,2.1875,0,0,0,0,0
4.181,0.9375,0,0,0,0,0
4.182,0.3125,0,0,0,0,0
4.183,-0.625,0,0,0,0,0
4.184,-1.4375,0,0,0,0,0
4.185,-2.0625,0,0,0,0,0
4.186,-2.5,0,0,0,0,0
4.187,-3,0,0,0,0,0
4.188,-2.75,0,0,0,0,0
4.189,-2.375,0,0,0,0,0
4.19,-2.4375,0,0,0,0,0
4.191,-2.375,0,0,0,0,0
4.192,-1.875,0,0,0,0,0
4.193,-1.25,0,0,0,0,0
4.194,-0.75,0,0,0,0,0
4.195,-0.1875,0,0,0,0,0
4.196,-0.5,0,0,0,0,0
4.197,-0.5,0,0,0,0,0
4.198,0.25,0,0,0,0,0
4.199,0.625,0,0,0,0,0
4.2,-0.1875,0,0,0,0,0
4.201,0,0,0,0,0,0
4.202,0.375,0,0,0,0,0
4.203,0.3125,0,0,0,0,0
4.204,0.0625,0,0,0,0,0
4.205,0.3125,0,0,0,0,0
4.206,-0.1875,0,0,0,0,0
4.207,0.3125,0,0,0,0,0
4.208,0.4375,0,0,0,0,0
4.209,-0.3125,0,0,0,0,0
4.21,-0.3125,0,0,0,0,0
4.211,0,0,0,0,0,0
4.212,-0.125,0,0,0,0,0
4.213,0,0,0,0,0,0
4.214,0.25,0,0,0,0,0
4.215,-0.5,0,0,0,0,0
4.216,-1.0625,0,0,0,0,0
4.217,-1.4375,0,0,0,0,0
4.218,-1,0,0,0,0,0
4.219,-0.625,0,0,0,0,0
4.22,-0.375,0,0,0,0,0
4.221,-0.1875,0,0,0,0,0
4.222,-0.3125,0,0,0,0,0
4.223,-0.1875,0,0,0,0,0
4.224,0,0,0,0,0,0
4.225,-0.625,0,0,0,0,0
4.226,0,0,0,0,0,0
4.227,-0.3125,0,0,0,0,0
4.228,-0.4375,0,0,0,0,0
4.229,-0.1875,0,0,0,0,0
4.23,-0.25,0,0,0,0,0
4.231,0.125,0,0,0,0,0
4.232,0.0625,0,0,0,0,0
4.233,-0.1875,0,0,0,0,0
4.234,0.5625,0,0,0,0,0
4.235,0.9375,0,0,0,0,0
4.236,1.0625,0,0,0,0,0
4.237,1.0625,0,0,0,0,0
4.238,0.25,0,0,0,0,0
4.239,0.4375,0,0,0,0,0
4.24,0.875,0,0,0,0,0
4.241,0.75,0,0,0,0,0
4.242,0.625,0,0,0,0,0
4.243,0.4375,0,0,0,0,0
4.244,0.625,0,0,0,0,0
4.245,0.9375,0,0,0,0,0
4.246,1.1875,0,0,0,0,0
4.247,1.875,0,0,0,0,0
4.248,1.875,0,0,0,0,0
4.249,1.5625,0,0,0,0,0
4.25,1.125,0,0,0,0,0
4.251,0.125,0,0,0,0,0
4.252,0.625,0,0,0,0,0
4.253,0,0,0,0,0,0
4.254,-0.5625,0,0,0,0,0
4.255,-0.625,0,0,0,0,0
4.256,-0.875,0,0,0,0,0
4.257,-0.8125,0,0,0,0,0
4.258,-0.375,0,0,0,0,0
4.259,-0.3125,0,0,0,0,0
4.26,-0.1875,0,0,0,0,0
4.261,-0.1875,0,0,0,0,0
4.262,-0.125,0,0,0,0,0
4.263,0,0,0,0,0,0
4.264,-0.6875,0,0,0,0,0
4.265,-0.8125,0,0,0,0,0
4.266,-1.1875,0,0,0,0,0
4.267,-0.8125,0,0,0,0,0
4.268,0.5625,0,0,0,0,0
4.269,1.875,0,0,0,0,0
4.27,1.8125,0,0,0,0,0
4.271,1.5625,0,0,0,0,0
4.272,0.9375,0,0,0,0,0
4.273,1.25,0,0,0,0,0
4.274,1.3125,0,0,0,0,0
4.275,1.25,0,0,0,0,0
4.276,1.75,0,0,0,0,0
4.277,1.5625,0,0,0,0,0
4.278,0.625,0,0,0,0,0
4.279,0,0,0,0,0,0
4.28,-0.1875,0,0,0,0,0
4.281,-0.1875,0,0,0,0,0
4.282,-0.4375,0,0,0,0,0
4.283,0.125,0,0,0,0,0
4.284,-0.75,0,0,0,0,0
4.285,0,0,0,0,0,0
4.286,0.0625,0,0,0,0,0
4.287,-0.625,0,0,0,0,0
4.288,-1.125,0,0,0,0,0
4.289,-2.0625,0,0,0,0,0
4.29,-1.25,0,0,0,0,0
4.291,-1.5625,0,0,0,0,0
4.292,-0.5,0,0,0,0,0
4.293,-0.3125,0,0,0,0,0
4.294,-0.625,0,0,0,0,0
4.295,0,0,0,0,0,0
4.296,0.4375,0,0,0,0,0
4.297,0.9375,0,0,0,0,0
4.298,1.25,0,0,0,0,0
4.299,1.5625,0,0,0,0,0
4.3,0.75,0,0,0,0,0
4.301,0.4375,0,0,0,0,0
4.302,0.75,0,0,0,0,0
4.303,0.75,0,0,0,0,0
4.304,-0.25,0,0,0,0,0
4.305,-0.1875,0,0,0,0,0
4.306,0.0625,0,0,0,0,0
4.307,-0.5,0,0,0,0,0
4.308,0.25,0,0,0,0,0
4.309,-0.3125,0,0,0,0,0
4.31,-0.3125,0,0,0,0,0
4.311,-0.5,0,0,0,0,0
4.312,-0.9375,0,0,0,0,0
4.313,-0.8125,0,0,0,0,0
4.314,-0.75,0,0,0,0,0
4.315,-0.9375,0,0,0,0,0
4.316,-1.3125,0,0,0,0,0
4.317,-2.0625,0,0,0,0,0
4.318,-1.375,0,0,0,0,0
4.319,-1.25,0,0,0,0,0
4.32,-0.9375,0,0,0,0,0
4.321,-0.8125,0,0,0,0,0
4.322,-0.375,0,0,0,0,0
4.323,0,0,0,0,0,0
4.324,-0.125,0,0,0,0,0
4.325,0.125,0,0,0,0,0
4.326,0,0,0,0,0,0
4.327,0,0,0,0,0,0
4.328,0.0625,0,0,0,0,0
4.329,0,0,0,0,0,0
4.33,-0.1875,0,0,0,0,0
4.331,-0.5,0,0,0,0,0
4.332,0.9375,0,0,0,0,0
4.333,1.25,0,0,0,0,0
4.334,1.3125,0,0,0,0,0
4.335,1.25,0,0,0,0,0
4.336,1.625,0,0,0,0,0
4.337,1.6875,0,0,0,0,0
4.338,0.625,0,0,0,0,0
4.339,0.4375,0,0,0,0,0
4.34,0.75,0,0,0,0,0
4.341,0.75,0,0,0,0,0
4.342,0.0625,0,0,0,0,0
4.343,0.3125,0,0,0,0,0
4.344,-0.5625,0,0,0,0,0
4.345,-1.4375,0,0,0,0,0
4.346,-1.125,0,0,0,0,0
4.347,-1.75,0,0,0,0,0
4.348,-1.5625,0,0,0,0,0
4.349,-1.25,0,0,0,0,0
4.35,-1.3125,0,0,0,0,0
4.351,-1.125,0,0,0,0,0
4.352,-1.125,0,0,0,0,0
4.353,-0.625,0,0,0,0,0
4.354,-0.75,0,0,0,0,0
4.355,-0.5,0,0,0,0,0
4.356,-1.0625,0,0,0,0,0
4.357,-0.9375,0,0,0,0,0
4.358,-0.75,0,0,0,0,0
4.359,-0.8125,0,0,0,0,0
4.36,-1.625,0,0,0,0,0
4.361,-1.75,0,0,0,0,0
4.362,-0.625,0,0,0,0,0
4.363,-0.625,0,0,0,0,0
4.364,-0.875,0,0,0,0,0
4.365,-0.1875,0,0,0,0,0
4.366,0.125,0,0,0,0,0
4.367,0.3125,0,0,0,0,0
4.368,0.625,0,0,0,0,0
4.369,0.3125,0,0,0,0,0
4.37,-0.4375,0,0,0,0,0
4.371,-0.8125,0,0,0,0,0
4.372,-0.625,0,0,0,0,0
4.373,-1.125,0,0,0,0,0
4.374,-1.625,0,0,0,0,0
4.375,-2.1875,0,0,0,0,0
4.376,-2.3125,0,0,0,0,0
4.377,-2.375,0,0,0,0,0
4.378,-2.625,0,0,0,0,0
4.379,-2.1875,0,0,0,0,0
4.38,-2.25,0,0,0,0,0
4.381,-2.0625,0,0,0,0,0
4.382,-1.875,0,0,0,0,0
4.383,-1.25,0,0,0,0,0
4.384,-1.1875,0,0,0,0,0
4.385,-1.25,0,0,0,0,0
4.386,-1.625,0,0,0,0,0
4.387,-1.5625,0,0,0,0,0
4.388,-1.8125,0,0,0,0,0
4.389,-2.375,0,0,0,0,0
4.39,-2.375,0,0,0,0,0
4.391,-2.6875,0,0,0,0,0
4.392,-2.9375,0,0,0,0,0
4.393,-2.5,0,0,0,0,0
4.394,-1.8125,0,0,0,0,0
4.395,-0.5,0,0,0,0,0
4.396,-1.125,0,0,0,0,0
4.397,-1.5625,0,0,0,0,0
4.398,-2,0,0,0,0,0
4.399,-2.5,0,0,0,0,0
4.4,-2.875,0,0,0,0,0
4.401,-2.375,0,0,0,0,0
4.402,-2,0,0,0,0,0
4.403,-1.5625,0,0,0,0,0
4.404,-1.6875,0,0,0,0,0
4.405,-1.4375,0,0,0,0,0
4.406,-1.6875,0,0,0,0,0
4.407,-1.5625,0,0,0,0,0
4.408,-1.5625,0,0,0,0,0
4.409,-1.75,0,0,0,0,0
4.41,-1.9375,0,0,0,0,0
4.411,-2.0625,0,0,0,0,0
4.412,-2.75,0,0,0,0,0
4.413,-3,0,0,0,0,0
4.414,-2.5,0,0,0,0,0
4.415,-2.6875,0,0,0,0,0
4.416,-2.75,0,0,0,0,0
4.417,-3.125,0,0,0,0,0
4.418,-3.375,0,0,0,0,0
4.419,-3.125,0,0,0,0,0
4.42,-3.125,0,0,0,1,0
4.421,-2.8125,0,0,0,0,0
4.422,-2.25,0,0,0,0,0
4.423,-2.8125,0,0,0,0,0
4.424,-3.3125,0,0,0,0,0
4.425,-3.4375,0,0,0,0,0
4.426,-2.8125,0,0,0,0,0
4.427,-2.375,0,0,0,0,0
4.428,-2.4375,0,0,0,0,0
4.429,-2.375,0,0,0,0,0
4.43,-2.375,0,0,0,0,0
4.431,-2.375,0,0,0,0,0
4.432,-2.5625,0,0,0,0,0
4.433,-2.375,0,0,0,0,0
4.434,-2,0,0,0,0,0
4.435,-2.0625,0,0,0,0,0
4.436,-2.125,0,0,0,0,0
4.437,-1.5625,0,0,0,0,0
4.438,-1.3125,0,0,0,0,0
4.439,-1.125,0,0,0,0,0
4.44,-0.75,0,0,0,0,0
4.441,0,0,0,0,0,0
4.442,0.0625,0,0,0,0,0
4.443,0.75,0,0,0,0,0
4.444,0.6875,0,0,0,0,0
4.445,0.75,0,0,0,0,0
4.446,0.9375,0,0,0,0,0
4.447,0.625,0,0,0,0,0
4.448,1.625,0,0,0,0,0
4.449,1.875,0,0,0,0,0
4.45,1.5625,0,0,0,0,0
4.451,2.1875,0,0,0,0,0
4.452,1.75,0,0,0,0,0
4.453,1.0625,0,0,0,0,0
4.454,1.3125,0,0,0,0,0
4.455,1.25,0,0,0,0,0
4.456,1.625,0,0,0,0,0
4.457,1.25,0,0,0,0,0
4.458,1.375,0,0,0,0,0
4.459,1.0625,0,0,0,0,0
4.46,1.625,0,0,0,0,0
4.461,2,0,0,0,0,0
4.462,1.375,0,0,0,0,0
4.463,1.375,0,0,0,0,0
4.464,1.625,0,0,0,0,0
4.465,0.9375,0,0,0,0,0
4.466,0.5625,0,0,0,0,0
4.467,0.625,0,0,0,0,0
4.468,0.875,0,0,0,0,0
4.469,0.75,0,0,0,0,0
4.47,1.0625,0,0,0,0,0
4.471,1.6875,0,0,0,0,0
4.472,1.5625,0,0,0,0,0
4.473,2,0,0,0,0,0
4.474,2.75,0,0,0,0,0
4.475,3.5625,0,0,0,0,0
4.476,3.6875,0,0,0,0,0
4.477,3.4375,0,0,0,0,0
4.478,2.5625,0,0,0,0,0
4.479,2.9375,0,0,0,0,0
4.48,3.4375,0,0,0,0,0
4.481,2.9375,0,0,0,0,0
4.482,2.75,0,0,0,0,0
4.483,2.5,0,0,0,0,0
4.484,3.125,0,0,0,0,0
4.485,2.9375,0,0,0,0,0
4.486,3.125,0,0,0,0,0
4.487,2.8125,0,0,0,0,0
4.488,2.625,0,0,0,0,0
4.489,2.8125,0,0,0,0,0
4.49,2.5625,0,0,0,0,0
4.491,2.3125,0,0,0,0,0
4.492,2.5625,0,0,0,0,0
4.493,2.3125,0,0,0,0,0
4.494,2.375,0,0,0,0,0
4.495,2.5,0,0,0,0,0
4.496,2.6875,0,0,0,0,0
4.497,2.625,0,0,0,0,0
4.498,2.8125,0,0,0,0,0
4.499,2.9375,0,0,0,0,0
4.5,2.25,0,0,0,0,0
4.501,1.875,0,0,0,0,0
4.502,1.75,0,0,0,0,0
4.503,1.6875,0,0,0,0,0
4.504,1.375,0,0,0,0,0
4.505,1.5625,0,0,0,0,0
4.506,1.6875,0,0,0,0,0
4.507,2.1875,0,0,0,0,0
4.508,2.625,0,0,0,0,0
4.509,2.3125,0,0,0,0,0
4.51,2.1875,0,0,0,0,0
4.511,2.1875,0,0,0,0,0
4.512,2.5625,0,0,0,0,0
4.513,2.1875,0,0,0,0,0
4.514,2.625,0,0,0,0,0
4.515,3.125,0,0,0,0,0
4.516,2.125,0,0,0,0,0
4.517,2.1875,0,0,0,0,0
4.518,1.8125,0,0,0,0,0
4.519,1.6875,0,0,0,0,0
4.52,2.0625,0,0,0,0,0
4.521,2.8125,0,0,0,0,0
4.522,2.625,0,0,0,0,0
4.523,3.125,0,0,0,0,0
4.524,2.6875,0,0,0,0,0
4.525,2.625,0,0,0,0,0
4.526,2.625,0,0,0,0,0
4.527,2.9375,0,0,0,0,0
4.528,2.5625,0,0,0,0,0
4.529,2.3125,0,0,0,0,0
4.53,2.3125,0,0,0,0,0
4.531,2.1875,0,0,0,0,0
4.532,1.9375,0,0,0,0,0
4.533,2.5,0,0,0,0,0
4.534,2.8125,0,0,0,0,0
4.535,2.9375,0,0,0,0,0
4.536,2.5625,0,0,0,0,0
4.537,2,0,0,0,0,0
4.538,1.9375,0,0,0,0,0
4.539,2.625,0,0,0,0,0
4.54,2,0,0,0,0,0
4.541,1.875,0,0,0,0,0
4.542,0.75,0,0,0,0,0
4.543,0.4375,0,0,0,0,0
4.544,0.4375,0,0,0,0,0
4.545,0.4375,0,0,0,0,0
4.546,1.0625,0,0,0,0,0
4.547,1.25,0,0,0,0,0
4.548,1.6875,0,0,0,0,0
4.549,2,0,0,0,0,0
4.55,1.5,0,0,0,0,0
4.551,0.9375,0,0,0,0,0
4.552,1.5625,0,0,0,0,0
4.553,1.0625,0,0,0,0,0
4.554,1.25,0,0,0,0,0
4.555,1.375,0,0,0,0,0
4.556,1.875,0,0,0,0,0
4.557,1.875,0,0,0,0,0
4.558,1.9375,0,0,0,0,0
4.559,1.875,0,0,0,0,0
4.56,2.125,0,0,0,0,0
4.561,1.875,0,0,0,0,0
4.562,1.5625,0,0,0,0,0
4.563,1.0625,0,0,0,0,0
4.564,1.375,0,0,0,0,0
4.565,0.625,0,0,0,0,0
4.566,0.75,0,0,0,0,0
4.567,0.75,0,0,0,0,0
4.568,0.6875,0,0,0,0,0
4.569,0.625,0,0,0,0,0
4.57,0.5625,0,0,0,0,1
4.571,0.4375,0,0,0,0,0
4.572,0.75,0,0,0,0,0
4.573,0.9375,0,0,0,0,0
4.574,0.375,0,0,0,0,0
4.575,0.4375,0,0,0,0,0
4.576,0.9375,0,0,0,0,0
4.577,1.25,0,0,0,0,0
4.578,1.25,0,0,0,0,0
4.579,1.0625,0,0,0,0,0
4.58,0.875,0,0,0,0,0
4.581,1.25,0,0,0,0,0
4.582,0.875,0,0,0,0,0
4.583,1.0625,0,0,0,0,0
4.584,1.25,0,0,0,0,0
4.585,0.9375,0,0,0,0,0
4.586,0.6875,0,0,0,0,0
4.587,0.75,0,0,0,0,0
4.588,0.9375,0,0,0,0,0
4.589,1.25,0,0,0,0,0
4.59,0.4375,0,0,0,0,0
4.591,0.4375,0,0,0,0,0
4.592,0.3125,0,0,0,0,0
4.593,0.125,0,0,0,0,0
4.594,0.5,0,0,0,0,0
4.595,0.625,0,0,0,0,0
4.596,0.375,0,0,0,0,0
4.597,0.625,0,0,0,0,0
4.598,0.75,0,0,0,0,0
4.599,0.625,0,0,0,0,0
4.6,0.25,0,0,0,0,0
4.601,0.625,0,0,0,0,0
4.602,0.875,0,0,0,0,0
4.603,0.625,0,0,0,0,0
4.604,-0.0625,0,0,0,0,0
4.605,-0.8125,0,0,0,0,0
4.606,0.125,0,0,0,0,0
4.607,0.9375,0,0,0,0,0
4.608,0.625,0,0,0,0,0
4.609,0.75,0,0,0,0,0
4.61,0.8125,0,0,0,0,0
4.611,0.625,0,0,0,0,0
4.612,1.25,0,0,0,0,0
4.613,1.5625,0,0,0,0,0
4.614,2.1875,0,0,0,0,0
4.615,2.1875,0,0,0,0,0
4.616,1.9375,0,0,0,0,0
4.617,1.875,0,0,0,0,0
4.618,1.75,0,0,0,0,0
4.619,1.6875,0,0,0,0,0
4.62,1.8125,0,0,0,0,0
4.621,0.75,0,0,0,0,0
4.622,0.5,0,0,0,0,0
4.623,0.125,0,0,0,0,0
4.624,-0.3125,0,0,0,0,0
4.625,-0.3125,0,0,0,0,0
4.626,-0.375,0,0,0,0,0
4.627,0,0,0,0,0,0
4.628,1,0,0,0,0,0
4.629,1.25,0,0,0,0,0
4.63,0.6875,0,0,0,0,0
4.631,0.4375,0,0,0,0,0
4.632,0.8125,0,0,0,0,0
4.633,0.3125,0,0,0,0,0
4.634,0.375,0,0,0,0,0
4.635,0.625,0,0,0,0,0
4.636,0.5625,0,0,0,0,0
4.637,0.625,0,0,0,0,0
4.638,0.625,0,0,0,0,0
4.639,0.75,0,0,0,0,0
4.64,0.8125,0,0,0,0,0
4.641,1.0625,0,0,0,0,0
4.642,1,0,0,0,0,0
4.643,1.375,0,0,0,0,0
4.644,1.625,0,0,0,0,0
4.645,1.875,0,0,0,0,0
4.646,1.0625,0,0,0,0,0
4.647,0.75,0,0,0,0,0
4.648,0.75,0,0,0,0,0
4.649,1.0625,0,0,0,0,0
4.65,0.9375,0,0,0,0,0
4.651,0.75,0,0,0,0,0
4.652,1.125,0,0,0,0,0
4.653,1.0625,0,0,0,0,0
4.654,0.6875,0,0,0,0,0
4.655,0.75,0,0,0,0,0
4.656,0.875,0,0,0,0,0
4.657,1.0625,0,0,0,0,0
4.658,0.375,0,0,0,0,0
4.659,0.125,0,0,0,0,0
4.66,-0.25,0,0,0,0,0
4.661,-0.5,0,0,0,0,0
4.662,0.5,0,0,0,0,0
4.663,1.0625,0,0,0,0,0
4.664,0.75,0,0,0,0,0
4.665,0.9375,0,0,0,0,0
4.666,1,0,0,0,0,0
4.667,0.625,0,0,0,0,0
4.668,1,0,0,0,0,0
4.669,1.375,0,0,0,0,0
4.67,1.1875,0,0,0,0,0
4.671,0.75,0,0,0,0,0
4.672,0.1875,0,0,0,0,0
4.673,0.4375,0,0,0,0,0
4.674,0.5,0,0,0,0,0
4.675,0.4375,0,0,0,0,0
4.676,0.75,0,0,0,0,0
4.677,0.4375,0,0,0,0,0
4.678,0.375,0,0,0,0,0
4.679,0.9375,0,0,0,0,0
4.68,0.875,0,0,0,0,0
4.681,0.625,0,0,0,0,0
4.682,0.875,0,0,0,0,0
4.683,1.25,0,0,0,0,0
4.684,1.375,0,0,0,0,0
4.685,1.25,0,0,0,0,0
4.686,1,0,0,0,0,0
4.687,1.5625,0,0,0,0,0
4.688,1.375,0,0,0,0,0
4.689,0.75,0,0,0,0,0
4.69,1,0,0,0,0,0
4.691,1.6875,0,0,0,0,0
4.692,2.125,0,0,0,0,0
4.693,2.5,0,0,0,0,0
4.694,1.875,0,0,0,0,0
4.695,1.5625,0,0,0,0,0
4.696,1.3125,0,0,0,0,0
4.697,0.9375,0,0,0,0,0
4.698,0.3125,0,0,0,0,0
4.699,-0.1875,0,0,0,0,0
4.7,-0.3125,0,0,0,0,0
4.701,-0.5,0,0,0,0,0
4.702,-0.625,0,0,0,0,0
4.703,-0.8125,0,0,0,0,0
4.704,-0.6875,0,0,0,0,0
4.705,-0.5,0,0,0,0,0
4.706,-0.5625,0,0,0,0,0
4.707,-0.1875,0,0,0,0,0
4.708,0.0625,0,0,0,0,0
4.709,0.125,0,0,0,0,0
4.71,-0.1875,0,0,0,0,0
4.711,0.625,0,0,0,0,0
4.712,1,0,0,0,0,0
4.713,1.0625,0,0,0,0,0
4.714,0.8125,0,0,0,0,0
4.715,0.75,0,0,0,0,0
4.716,0.1875,0,0,0,0,0
4.717,0,0,0,0,0,0
4.718,0.125,0,0,0,0,0
4.719,0.3125,0,0,0,0,0
4.72,0.625,0,0,0,0,0
4.721,1.25,0,0,0,0,0
4.722,1.4375,0,0,0,0,0
4.723,1.25,0,0,0,0,0
4.724,0.625,0,0,0,0,0
4.725,0.125,0,0,0,0,0
4.726,0.75,0,0,0,0,0
4.727,0.9375,0,0,0,0,0
4.728,0.875,0,0,0,0,0
4.729,0.625,0,0,0,0,0
4.73,0.5,0,0,0,0,0
4.731,0.3125,0,0,0,0,0
4.732,0.3125,0,0,0,0,0
4.733,0.75,0,0,0,0,0
4.734,0.9375,0,0,0,0,0
4.735,0.75,0,0,0,0,0
4.736,0.5625,0,0,0,0,0
4.737,0.4375,0,0,0,0,0
4.738,0.5625,0,0,0,0,0
4.739,0.4375,0,0,0,0,0
4.74,0.9375,0,0,0,0,0
4.741,1.375,0,0,0,0,0
4.742,1.25,0,0,0,0,0
4.743,1.5625,0,0,0,0,0
4.744,1.6875,0,0,0,0,0
4.745,1.6875,0,0,0,0,0
4.746,1.4375,0,0,0,0,0
4.747,1.875,0,0,0,0,0
4.748,1.625,0,0,0,0,0
4.749,0.9375,0,0,0,0,0
4.75,1.0625,0,0,0,0,0
4.751,1.0625,0,0,0,0,0
4.752,0.75,0,0,0,0,0
4.753,1.25,0,0,0,0,0
4.754,1.5625,0,0,0,0,0
4.755,1.0625,0,0,0,0,0
4.756,1.5,0,0,0,0,0
4.757,1.5625,0,0,0,0,0
4.758,1.3125,0,0,0,0,0
4.759,1.5625,0,0,0,0,0
4.76,1.25,0,0,0,0,0
4.761,2.1875,0,0,0,0,0
4.762,1.625,0,0,0,0,0
4.763,1.5625,0,0,0,0,0
4.764,1.1875,0,0,0,0,0
4.765,1.5625,0,0,0,0,0
4.766,1.3125,0,0,0,0,0
4.767,0.9375,0,0,0,0,0
4.768,0.875,0,0,0,0,0
4.769,0.625,0,0,0,0,0
4.77,0.375,0,0,0,0,0
4.771,0,0,0,0,0,0
4.772,0.75,0,0,0,0,0
4.773,0.625,0,0,0,0,0
4.774,0.25,0,0,0,0,0
4.775,0.4375,0,0,0,0,0
4.776,0.75,0,0,0,0,0
4.777,0.625,0,0,0,0,0
4.778,0.4375,0,0,0,0,0
4.779,0.4375,0,0,0,0,0
4.78,0.4375,0,0,0,0,0
4.781,0.125,0,0,0,0,0
4.782,0.875,0,0,0,0,0
4.783,1.0625,0,0,0,0,0
4.784,-0.125,0,0,0,0,0
4.785,0.3125,0,0,0,0,0
4.786,0.25,0,0,0,0,0
4.787,-0.1875,0,0,0,0,0
4.788,0.5625,0,0,0,0,0
4.789,0.4375,0,0,0,0,0
4.79,0.8125,0,0,0,0,0
4.791,1.0625,0,0,0,0,0
4.792,1.3125,0,0,0,0,0
4.793,1.25,0,0,0,0,0
4.794,1.125,0,0,0,0,0
4.795,1.5625,0,0,0,0,0
4.796,1.3125,0,0,0,0,0
4.797,0.75,0,0,0,0,0
4.798,0,0,0,0,0,0
4.799,-0.5,0,0,0,0,0
4.8,0.3125,0,0,0,0,0
4.801,0.75,0,0,0,0,0
4.802,1.0625,0,0,0,0,0
4.803,0.75,0,0,0,0,0
4.804,1.25,0,0,0,0,0
4.805,0.9375,0,0,0,0,0
4.806,0.9375,0,0,0,0,0
4.807,1.25,0,0,0,0,0
4.808,1.4375,0,0,0,0,0
4.809,1.6875,0,0,0,0,0
4.81,1.5,0,0,0,0,0
4.811,1.25,0,0,0,0,0
4.812,1.5625,0,0,0,0,0
4.813,1.375,0,0,0,0,0
4.814,1.25,0,0,0,0,0
4.815,1.25,0,0,0,0,0
4.816,0.6875,0,0,0,0,0
4.817,0,0,0,0,0,0
4.818,0.4375,0,0,0,0,0
4.819,0,0,0,0,0,0
4.82,0.75,0,0,0,0,0
4.821,1.25,0,0,0,0,0
4.822,0.9375,0,0,0,0,0
4.823,1.25,0,0,0,0,0
4.824,0.9375,0,0,0,0,0
4.825,0.4375,0,0,0,0,0
4.826,0.25,0,0,0,0,0
4.827,0.125,0,0,0,0,0
4.828,0.6875,0,0,0,0,0
4.829,0.625,0,0,0,0,0
4.83,0.75,0,0,0,0,0
4.831,1.5625,0,0,0,0,0
4.832,2.0625,0,0,0,0,0
4.833,1.875,0,0,0,0,0
4.834,1.8125,0,0,0,0,0
4.835,2,0,0,0,0,0
4.836,2.1875,0,0,0,0,0
4.837,1.875,0,0,0,0,0
4.838,1.3125,0,0,0,0,0
4.839,1.375,0,0,0,0,0
4.84,1.4375,0,0,0,0,0
4.841,1.25,0,0,0,0,0
4.842,0.8125,0,0,0,0,0
4.843,0.625,0,0,0,0,0
4.844,0.125,0,0,0,0,0
4.845,-0.3125,0,0,0,0,0
4.846,-0.3125,0,0,0,0,0
4.847,-0.1875,0,0,0,0,0
4.848,0,0,0,0,0,0
4.849,0.125,0,0,0,0,0
4.85,-0.3125,0,0,0,0,0
4.851,-0.3125,0,0,0,0,0
4.852,0.375,0,0,0,0,0
4.853,1.25,0,0,0,0,0
4.854,1.375,0,0,0,0,0
4.855,1.0625,0,0,0,0,0
4.856,1.625,0,0,0,0,0
4.857,2,0,0,0,0,0
4.858,2.25,0,0,0,0,0
4.859,1.5625,0,0,0,0,0
4.86,1.8125,0,0,0,0,0
4.861,1.875,0,0,0,0,0
4.862,1.375,0,0,0,0,0
4.863,1.6875,0,0,0,0,0
4.864,1.5625,0,0,0,0,0
4.865,1.875,0,0,0,0,0
4.866,1.75,0,0,0,0,0
4.867,2.1875,0,0,0,0,0
4.868,0.75,0,0,0,0,0
4.869,0.125,0,0,0,0,0
4.87,0.1875,0,0,0,0,0
4.871,0,0,0,0,0,0
4.872,0.25,0,0,0,0,0
4.873,0.3125,0,0,0,0,0
4.874,0.125,0,0,0,0,0
4.875,0.125,0,0,0,0,0
4.876,0.5,0,0,0,0,0
4.877,0.9375,0,0,0,0,0
4.878,0.8125,0,0,0,0,0
4.879,0.9375,0,0,0,0,0
4.88,0.75,0,0,0,0,0
4.881,0.9375,0,0,0,0,0
4.882,0.9375,0,0,0,0,0
4.883,1.0625,0,0,0,0,0
4.884,1.9375,0,0,0,0,0
4.885,1.6875,0,0,0,0,0
4.886,0.9375,0,0,0,0,0
4.887,0.625,0,0,0,0,0
4.888,0.75,0,0,0,0,0
4.889,0.625,0,0,0,0,0
4.89,0.4375,0,0,0,0,0
4.891,0.125,0,0,0,0,0
4.892,1,0,0,0,0,0
4.893,1.875,0,0,0,0,0
4.894,1.9375,0,0,0,0,0
4.895,1.6875,0,0,0,0,0
4.896,1.25,0,0,0,0,0
4.897,1.0625,0,0,0,0,0
4.898,0.875,0,0,0,0,0
4.899,1.25,0,0,0,0,0
4.9,0.6875,0,0,0,0,0
4.901,0.625,0,0,0,0,0
4.902,1.1875,0,0,0,0,0
4.903,0.75,0,0,0,0,0
4.904,0.625,0,0,0,0,0
4.905,0.3125,0,0,0,0,0
4.906,0.875,0,0,0,0,0
4.907,1.0625,0,0,0,0,0
4.908,1.0625,0,0,0,0,0
4.909,0.9375,0,0,0,0,0
4.91,1.875,0,0,0,0,0
4.911,1.6875,0,0,0,0,0
4.912,1,0,0,0,0,0
4.913,0.4375,0,0,0,0,0
4.914,0.0625,0,0,0,0,0
4.915,0.125,0,0,0,0,0
4.916,0.125,0,0,0,0,0
4.917,-0.3125,0,0,0,0,0
4.918,0,0,0,0,0,0
4.919,0.625,0,0,0,0,0
4.92,0.6875,0,0,0,0,0
4.921,0.9375,0,0,0,0,0
4.922,1.125,0,0,0,0,0
4.923,1.375,0,0,0,0,0
4.924,1.5625,0,0,0,0,0
4.925,1.25,0,0,0,0,0
4.926,1.3125,0,0,0,0,0
4.927,1.6875,0,0,0,0,0
4.928,2.1875,0,0,0,0,0
4.929,2.3125,0,0,0,0,0
4.93,2.3125,0,0,0,0,0
4.931,2,0,0,0,0,0
4.932,1.0625,0,0,0,0,0
4.933,0.125,0,0,0,0,0
4.934,0.625,0,0,0,0,0
4.935,0.9375,0,0,0,0,0
4.936,1.125,0,0,0,0,0
4.937,1.0625,0,0,0,0,0
4.938,1.9375,0,0,0,0,0
4.939,2.3125,0,0,0,0,0
4.94,2.125,0,0,0,0,0
4.941,1.6875,0,0,0,0,0
4.942,1.3125,0,0,0,0,0
4.943,0.9375,0,0,0,0,0
4.944,1.4375,0,0,0,0,0
4.945,1.875,0,0,0,0,0
4.946,1.3125,0,0,0,0,0
4.947,1.6875,0,0,0,0,0
4.948,2.1875,0,0,0,0,0
4.949,2.625,0,0,0,0,0
4.95,2.875,0,0,0,0,0
4.951,2.8125,0,0,0,0,0
4.952,2.9375,0,0,0,0,0
4.953,2.9375,0,0,0,0,0
4.954,2.625,0,0,0,0,0
4.955,2.8125,0,0,0,0,0
4.956,2.75,0,0,0,0,0
4.957,2.8125,0,0,0,0,0
4.958,2.8125,0,0,0,0,0
4.959,3.125,0,0,0,0,0
4.96,2.375,0,0,0,0,0
4.961,2.5,0,0,0,0,0
4.962,3.4375,0,0,0,0,0
4.963,4.0625,0,0,0,0,0
4.964,3.5625,0,0,0,0,0
4.965,3.75,0,0,0,0,0
4.966,3.9375,0,0,0,0,0
4.967,4.0625,0,0,0,0,0
4.968,4,0,0,0,0,0
4.969,3.5625,0,0,0,0,0
4.97,2.8125,0,0,0,0,0
4.971,2.1875,0,0,0,0,0
4.972,1.8125,0,0,0,0,0
4.973,1.875,0,0,0,0,0
4.974,2.125,0,0,0,0,0
4.975,1.875,0,0,0,0,0
4.976,2.625,0,0,0,0,0
4.977,2.9375,0,0,0,0,0
4.978,3.875,0,0,0,0,0
4.979,4.6875,0,0,0,0,0
4.98,4.4375,0,0,0,0,0
4.981,4.1875,0,0,0,0,0
4.982,3.9375,0,0,0,0,0
4.983,3.5625,0,0,0,0,0
4.984,2.875,0,0,0,0,0
4.985,2,0,0,0,0,0
4.986,1.9375,0,0,0,0,0
4.987,1.875,0,0,0,0,0
4.988,1.3125,0,0,0,0,0
4.989,1.5625,0,0,0,0,0
4.99,3,0,0,0,0,0
4.991,4.0625,0,0,0,0,0
4.992,3.0625,0,0,0,0,0
4.993,3.25,0,0,0,0,0
4.994,3.375,0,0,0,0,0
4.995,3.75,0,0,0,0,0
4.996,4.125,0,0,0,0,0
4.997,3.875,0,0,0,0,0
4.998,3.5625,0,0,0,0,0
4.999,3.5625,0,0,0,0,0
5,3.5,0,0,0,0,0
5.001,3.5625,0,0,0,0,0
5.002,3.625,0,0,0,0,0
5.003,3.5625,0,0,0,0,0
5.004,3.75,0,0,0,0,0
5.005,3.875,0,0,0,0,0
5.006,3.5,0,0,0,0,0
5.007,2.8125,0,0,0,0,0
5.008,1.9375,0,0,0,0,0
5.009,0.9375,0,0,0,0,0
5.01,0.75,0,0,0,0,0
5.011,0.75,0,0,0,0,0
5.012,0.75,0,0,0,0,0
5.013,0.625,0,0,0,0,0
5.014,0.4375,0,0,0,0,0
5.015,0.4375,0,0,0,0,0
5.016,-0.375,0,0,0,0,0
5.017,-0.5,0,0,0,0,0
5.018,-0.1875,0,0,0,0,0
5.019,-0.1875,0,0,0,0,0
5.02,0,0,0,0,0,0
5.021,0.125,0,0,0,0,0
5.022,-0.0625,0,0,0,0,0
5.023,0.125,0,0,0,0,0
5.024,0.25,0,0,0,0,0
5.025,0.9375,0,0,0,0,0
5.026,0.875,0,0,0,0,0
5.027,1.25,0,0,0,0,0
5.028,0.875,0,0,0,0,0
5.029,0.3125,0,0,0,0,0
5.03,0.25,0,0,0,0,0
5.031,0,0,0,0,0,0
5.032,-0.1875,0,0,0,0,0
5.033,0,0,0,0,0,0
5.034,0.5,0,0,0,0,0
5.035,1.6875,0,0,0,0,0
5.036,1.5625,0,0,0,0,0
5.037,0.3125,0,0,0,0,0
5.038,-0.125,0,0,0,0,0
5.039,0,0,0,0,0,0
5.04,0.3125,0,0,0,0,0
5.041,0.75,0,0,0,0,0
5.042,0.8125,0,0,0,0,0
5.043,1.0625,0,0,0,0,0
5.044,0.625,0,0,0,0,0
5.045,0.4375,0,0,0,0,0
5.046,0.8125,0,0,0,0,0
5.047,1.0625,0,0,0,0,0
5.048,1.6875,0,0,0,0,0
5.049,0.9375,0,0,0,0,0
5.05,0.5,0,0,0,0,0
5.051,0.9375,0,0,0,0,0
5.052,0.6875,0,0,0,0,0
5.053,1.0625,0,0,0,0,0
5.054,1,0,0,0,0,0
5.055,0.75,0,0,0,0,0
5.056,0.875,0,0,0,0,0
5.057,0.625,0,0,0,0,0
5.058,0.4375,0,0,0,0,0
5.059,0.125,0,0,0,0,0
5.06,0.25,0,0,0,0,0
5.061,0,0,0,0,0,0
5.062,0.8125,0,0,0,0,0
5.063,1.375,0,0,0,0,0
5.064,1.1875,0,0,0,0,0
5.065,0.3125,0,0,0,0,0
5.066,0.8125,0,0,0,0,0
5.067,1.25,0,0,0,0,0
5.068,1.3125,0,0,0,0,0
5.069,1.375,0,0,0,0,0
5.07,1.3125,0,0,0,0,0
5.071,1.375,0,0,0,0,0
5.072,1.5625,0,0,0,0,0
5.073,1.5625,0,0,0,0,0
5.074,1.0625,0,0,0,0,0
5.075,0.9375,0,0,0,0,0
5.076,0.3125,0,0,0,0,0
5.077,0.625,0,0,0,0,0
5.078,1.25,0,0,0,0,0
5.079,1.375,0,0,0,0,0
5.08,0.875,0,0,0,0,0
5.081,1.25,0,0,0,0,0
5.082,0.6875,0,0,0,0,0
5.083,0.625,0,0,0,0,0
5.084,0.6875,0,0,0,0,0
5.085,0.9375,0,0,0,0,0
5.086,1.25,0,0,0,0,0
5.087,1.5625,0,0,0,0,0
5.088,1.9375,0,0,0,0,0
5.089,2.1875,0,0,0,0,0
5.09,2.1875,0,0,0,0,0
5.091,2,0,0,0,0,0
5.092,2.1875,0,0,0,0,0
5.093,2.1875,0,0,0,0,0
5.094,2.875,0,0,0,0,0
5.095,2.1875,0,0,0,0,0
5.096,1.6875,0,0,0,0,0
5.097,2.3125,0,0,0,0,0
5.098,2.125,0,0,0,0,0
5.099,2.1875,0,0,0,0,0
5.1,2.1875,0,0,0,0,0
5.101,2.3125,0,0,0,0,0
5.102,2.125,0,0,0,0,0
5.103,1.0625,0,0,0,0,0
5.104,1.8125,0,0,0,0,0
5.105,2.1875,1,0,0,0,0
5.106,2.5625,0,0,0,0,0
5.107,2.5,0,0,0,0,0
5.108,2.625,0,0,0,0,0
5.109,3.125,0,0,0,0,0
5.11,4.5625,0,0,0,0,0
5.111,5.75,0,0,0,0,0
5.112,6.625,0,0,0,0,0
5.113,7.9375,0,0,0,0,0
5.114,9,0,0,0,0,0
5.115,10.313,0,0,0,0,0
5.116,11.375,0,0,0,0,0
5.117,12.5,0,0,0,0,0
5.118,13.375,0,0,0,0,0
5.119,14.188,0,0,0,0,0
5.12,14.688,0,0,0,0,0
5.121,15.938,0,0,0,0,0
5.122,16.75,0,0,0,0,0
5.123,18.125,0,0,0,0,0
5.124,19.063,0,0,0,0,0
5.125,20.938,0,0,0,0,0
5.126,23.813,0,0,0,0,0
5.127,27,0,0,0,0,0
5.128,29.188,0,0,0,0,0
5.129,31.688,0,0,0,0,0
5.13,34.75,0,0,0,0,0
5.131,37.313,0,0,0,0,0
5.132,39.875,0,0,0,0,0
5.133,42,0,0,0,0,0
5.134,44.375,0,0,0,0,0
5.135,45.625,0,0,0,0,0
5.136,47,0,0,0,0,0
5.137,48.438,0,0,0,0,0
5.138,48.313,0,0,0,0,0
5.139,48.125,0,0,0,0,0
5.14,47.938,0,0,0,0,0
5.141,47.938,0,0,0,0,0
5.142,47.938,0,0,0,0,0
5.143,48.25,0,0,0,0,0
5.144,48.75,0,0,0,0,0
5.145,49.188,0,0,0,0,0
5.146,50.75,0,0,0,0,0
5.147,52,0,0,0,0,0
5.148,52.188,0,0,0,0,0
5.149,53.125,0,1,0,0,0
5.15,53.75,0,0,0,0,0
5.151,53.875,0,0,0,0,0
5.152,52.5,0,0,0,0,0
5.153,50.313,0,0,0,0,0
5.154,46.25,0,0,0,0,0
5.155,42,0,0,0,0,0
5.156,38.5,0,0,0,0,0
5.157,34.375,0,0,0,0,0
5.158,30.563,0,0,0,0,0
5.159,27,0,0,0,0,0
5.16,24.375,0,0,0,0,0
5.161,22.5,0,0,0,0,0
5.162,21.375,0,0,0,0,0
5.163,21.063,0,0,0,0,0
5.164,19.625,0,0,0,0,0
5.165,17.625,0,0,0,0,0
5.166,14.938,0,0,0,0,0
5.167,12.5,0,0,0,0,0
5.168,10.188,0,0,0,0,0
5.169,7.5,0,0,0,0,0
5.17,5.6875,0,0,0,0,0
5.171,3.875,0,0,0,0,0
5.172,2.375,0,0,0,0,0
5.173,2.5,0,0,0,0,0
5.174,2.125,0,0,1,0,0
5.175,1.875,0,0,0,0,0
5.176,1.625,0,0,0,0,0
5.177,1.25,0,0,0,0,0
5.178,1.1875,0,0,0,0,0
5.179,0.9375,0,0,0,0,0
5.18,0.8125,0,0,0,0,0
5.181,0.75,0,0,0,0,0
5.182,-0.5625,0,0,0,0,0
5.183,-1.25,0,0,0,0,0
5.184,-1.6875,0,0,0,0,0
5.185,-2.1875,0,0,0,0,0
5.186,-1.1875,0,0,0,0,0
5.187,-0.9375,0,0,0,0,0
5.188,-0.25,0,0,0,0,0
5.189,0.625,0,0,0,0,0
5.19,-0.0625,0,0,0,0,0
5.191,-0.1875,0,0,0,0,0
5.192,0.125,0,0,0,0,0
5.193,0.3125,0,0,0,0,0
5.194,-0.25,0,0,0,0,0
5.195,-0.3125,0,0,0,0,0
5.196,-0.0625,0,0,0,0,0
5.197,-0.5,0,0,0,0,0
5.198,0.125,0,0,0,0,0
5.199,0.125,0,0,0,0,0
5.2,-0.125,0,0,0,0,0
5.201,-0.5,0,0,0,0,0
5.202,-1.125,0,0,0,0,0
5.203,-1.125,0,0,0,0,0
5.204,-0.875,0,0,0,0,0
5.205,-0.8125,0,0,0,0,0
5.206,-1.0625,0,0,0,0,0
5.207,-0.1875,0,0,0,0,0
5.208,-0.25,0,0,0,0,0
5.209,-0.8125,0,0,0,0,0
5.21,0.4375,0,0,0,0,0
5.211,0.3125,0,0,0,0,0
5.212,-0.3125,0,0,0,0,0
5.213,0.125,0,0,0,0,0
5.214,0.3125,0,0,0,0,0
5.215,0.3125,0,0,0,0,0
5.216,-0.25,0,0,0,0,0
5.217,-0.5,0,0,0,0,0
5.218,0.0625,0,0,0,0,0
5.219,0.75,0,0,0,0,0
5.22,0.5,0,0,0,0,0
5.221,0.9375,0,0,0,0,0
5.222,1.125,0,0,0,0,0
5.223,1.25,0,0,0,0,0
5.224,0.625,0,0,0,0,0
5.225,0.125,0,0,0,0,0
5.226,-0.25,0,0,0,0,0
5.227,-0.625,0,0,0,0,0
5.228,-0.25,0,0,0,0,0
5.229,-0.8125,0,0,0,0,0
5.23,-0.5625,0,0,0,0,0
5.231,-0.625,0,0,0,0,0
5.232,-0.6875,0,0,0,0,0
5.233,-0.625,0,0,0,0,0
5.234,-0.625,0,0,0,0,0
5.235,-0.5,0,0,0,0,0
5.236,-0.4375,0,0,0,0,0
5.237,-0.3125,0,0,0,0,0
5.238,-0.125,0,0,0,0,0
5.239,0.3125,0,0,0,0,0
5.24,0.625,0,0,0,0,0
5.241,0.9375,0,0,0,0,0
5.242,0.875,0,0,0,0,0
5.243,0.75,0,0,0,0,0
5.244,-0.0625,0,0,0,0,0
5.245,-0.625,0,0,0,0,0
5.246,0.25,0,0,0,0,0
5.247,0.9375,0,0,0,0,0
5.248,0.5,0,0,0,0,0
5.249,1.0625,0,0,0,0,0
5.25,1,0,0,0,0,0
5.251,0.4375,0,0,0,0,0
5.252,0.5,0,0,0,0,0
5.253,0.9375,0,0,0,0,0
5.254,0.1875,0,0,0,0,0
5.255,0.4375,0,0,0,0,0
5.256,0,0,0,0,0,0
5.257,-1.4375,0,0,0,0,0
5.258,-1.5,0,0,0,0,0
5.259,-1.25,0,0,0,0,0
5.26,-1.9375,0,0,0,0,0
5.261,-2.375,0,0,0,0,0
5.262,-1.6875,0,0,0,0,0
5.263,-2.0625,0,0,0,0,0
5.264,-1.3125,0,0,0,0,0
5.265,-0.3125,0,0,0,0,0
5.266,-0.125,0,0,0,0,0
5.267,0,0,0,0,0,0
5.268,-0.125,0,0,0,0,0
5.269,-0.1875,0,0,0,0,0
5.27,-0.25,0,0,0,0,0
5.271,0,0,0,0,0,0
5.272,0.3125,0,0,0,0,0
5.273,-0.1875,0,0,0,0,0
5.274,0.9375,0,0,0,0,0
5.275,1.0625,0,0,0,0,0
5.276,0.875,0,0,0,0,0
5.277,1.0625,0,0,0,0,0
5.278,0.25,0,0,0,0,0
5.279,-0.1875,0,0,0,0,0
5.28,0.1875,0,0,0,0,0
5.281,0.4375,0,0,0,0,0
5.282,0.375,0,0,0,0,0
5.283,0,0,0,0,0,0
5.284,-0.25,0,0,0,0,0
5.285,-0.625,0,0,0,0,0
5.286,-1.25,0,0,0,0,0
5.287,-0.8125,0,0,0,0,0
5.288,-0.3125,0,0,0,0,0
5.289,-0.5,0,0,0,0,0
5.29,-0.375,0,0,0,0,0
5.291,-0.3125,0,0,0,0,0
5.292,-0.3125,0,0,0,0,0
5.293,-0.3125,0,0,0,0,0
5.294,-0.5,0,0,0,0,0
5.295,-0.1875,0,0,0,0,0
5.296,-0.1875,0,0,0,0,0
5.297,-0.5,0,0,0,0,0
5.298,-0.6875,0,0,0,0,0
5.299,-1.5625,0,0,0,0,0
5.3,-0.6875,0,0,0,0,0
5.301,-0.8125,0,0,0,0,0
5.302,-1.25,0,0,0,0,0
5.303,-1.25,0,0,0,0,0
5.304,-1,0,0,0,0,0
5.305,-0.3125,0,0,0,0,0
5.306,0.0625,0,0,0,0,0
5.307,0,0,0,0,0,0
5.308,-0.4375,0,0,0,0,0
5.309,-0.9375,0,0,0,0,0
5.31,-1.4375,0,0,0,0,0
5.311,-1.875,0,0,0,0,0
5.312,-2.125,0,0,0,0,0
5.313,-1.75,0,0,0,0,0
5.314,-1.6875,0,0,0,0,0
5.315,-0.8125,0,0,0,0,0
5.316,-0.6875,0,0,0,0,0
5.317,-0.8125,0,0,0,0,0
5.318,-0.25,0,0,0,0,0
5.319,0,0,0,0,0,0
5.32,-0.25,0,0,0,0,0
5.321,0.4375,0,0,0,0,0
5.322,0.5625,0,0,0,0,0
5.323,0.625,0,0,0,0,0
5.324,0.8125,0,0,0,0,0
5.325,0.3125,0,0,0,0,0
5.326,0.0625,0,0,0,0,0
5.327,0.125,0,0,0,0,0
5.328,0.0625,0,0,0,0,0
5.329,0.125,0,0,0,0,0
5.33,-0.5,0,0,0,0,0
5.331,-0.3125,0,0,0,0,0
5.332,-1.25,0,0,0,0,0
5.333,-0.5,0,0,0,0,0
5.334,-0.25,0,0,0,0,0
5.335,-0.8125,0,0,0,0,0
5.336,-0.8125,0,0,0,0,0
5.337,-1.25,0,0,0,0,0
5.338,0,0,0,0,0,0
5.339,0.125,0,0,0,0,0
5.34,0.8125,0,0,0,0,0
5.341,0.625,0,0,0,0,0
5.342,0,0,0,0,0,0
5.343,0.3125,0,0,0,0,0
5.344,-1.0625,0,0,0,0,0
5.345,-2.375,0,0,0,0,0
5.346,-1.8125,0,0,0,0,0
5.347,-1.25,0,0,0,0,0
5.348,-1.875,0,0,0,0,0
5.349,-2.0625,0,0,0,0,0
5.35,-1.625,0,0,0,0,0
5.351,-1.4375,0,0,0,0,0
5.352,-2.125,0,0,0,0,0
5.353,-1.75,0,0,0,0,0
5.354,-1.25,0,0,0,0,0
5.355,-1.5625,0,0,0,0,0
5.356,-1.1875,0,0,0,0,0
5.357,-2.1875,0,0,0,0,0
5.358,-2.0625,0,0,0,0,0
5.359,-2.0625,0,0,0,0,0
5.36,-2.125,0,0,0,0,0
5.361,-1.5625,0,0,0,0,0
5.362,-1.3125,0,0,0,0,0
5.363,-1.25,0,0,0,0,0
5.364,-0.9375,0,0,0,0,0
5.365,-0.8125,0,0,0,0,0
5.366,-0.625,0,0,0,0,0
5.367,-1.125,0,0,0,0,0
5.368,-0.8125,0,0,0,0,0
5.369,-0.625,0,0,0,0,0
5.37,-0.75,0,0,0,0,0
5.371,-0.8125,0,0,0,0,0
5.372,-0.75,0,0,0,0,0
5.373,-0.3125,0,0,0,0,0
5.374,0.125,0,0,0,0,0
5.375,0.75,0,0,0,0,0
5.376,0.8125,0,0,0,0,0
5.377,0.625,0,0,0,0,0
5.378,-0.3125,0,0,0,0,0
5.379,-1.4375,0,0,0,0,0
5.38,-1,0,0,0,0,0
5.381,-1.75,0,0,0,0,0
5.382,-1.875,0,0,0,0,0
5.383,-2.1875,0,0,0,0,0
5.384,-1.8125,0,0,0,0,0
5.385,-1.75,0,0,0,0,0
5.386,-2.6875,0,0,0,0,0
5.387,-2.6875,0,0,0,0,0
5.388,-2.1875,0,0,0,0,0
5.389,-2.0625,0,0,0,0,0
5.39,-2.125,0,0,0,0,0
5.391,-1.25,0,0,0,0,0
5.392,-1.25,0,0,0,0,0
5.393,-1.25,0,0,0,0,0
5.394,-0.625,0,0,0,0,0
5.395,-0.9375,0,0,0,0,0
5.396,-1.3125,0,0,0,0,0
5.397,-1.5625,0,0,0,0,0
5.398,-1.6875,0,0,0,0,0
5.399,-1.5625,0,0,0,0,0
5.4,-2.5,0,0,0,0,0
5.401,-3,0,0,0,0,0
