0,2.3125,0,0,0,0,0
0.001,2.1875,0,0,0,0,0
0.002,2.0625,0,0,0,0,0
0.003,1.875,0,0,0,0,0
0.004,1.75,0,0,0,0,0
0.005,1.5625,0,0,0,0,0
0.006,1.125,0,0,0,0,0
0.007,0.625,0,0,0,0,0
0.008,0.3125,0,0,0,0,0
0.009,0,0,0,0,0,0
0.01,0.4375,0,0,0,0,0
0.011,0.9375,0,0,0,0,0
0.012,1.5625,0,0,0,0,0
0.013,2.1875,0,0,0,0,0
0.014,2.0625,0,0,0,0,0
0.015,1.875,0,0,0,0,0
0.016,2,0,0,0,0,0
0.017,2.1875,0,0,0,0,0
0.018,2.3125,0,0,0,0,0
0.019,2.5,0,0,0,0,0
0.02,2.1875,0,0,0,0,0
0.021,1.875,0,0,0,0,0
0.022,1.875,0,0,0,0,0
0.023,1.875,0,0,0,0,0
0.024,1.25,0,0,0,0,0
0.025,0.625,0,0,0,0,0
0.026,0.75,0,0,0,0,0
0.027,0.9375,0,0,0,0,0
0.028,0.9375,0,0,0,0,0
0.029,0.9375,0,0,0,0,0
0.03,0.9375,0,0,0,0,0
0.031,0.9375,0,0,0,0,0
0.032,0.3125,0,0,0,0,0
0.033,-0.3125,0,0,0,0,0
0.034,-0.9375,0,0,0,0,0
0.035,-1.5625,0,0,0,0,0
0.036,-1.5625,0,0,0,0,0
0.037,-1.5625,0,0,0,0,0
0.038,-0.8125,0,0,0,0,0
0.039,0,0,0,0,0,0
0.04,0.625,0,0,0,0,0
0.041,1.25,0,0,0,0,0
0.042,0.8125,0,0,0,0,0
0.043,0.3125,0,0,0,0,0
0.044,-0.125,0,0,0,0,0
0.045,-0.625,0,0,0,0,0
0.046,0,0,0,0,0,0
0.047,0.625,0,0,0,0,0
0.048,0.75,0,0,0,0,0
0.049,0.9375,0,0,0,0,0
0.05,0.9375,0,0,0,0,0
0.051,0.9375,0,0,0,0,0
0.052,0.9375,0,0,0,0,0
0.053,0.9375,0,0,0,0,0
0.054,0.8125,0,0,0,0,0
0.055,0.625,0,0,0,0,0
0.056,0.3125,0,0,0,0,0
0.057,0,0,0,0,0,0
0.058,0.3125,0,0,0,0,0
0.059,0.625,0,0,0,0,0
0.06,1.0625,0,0,0,0,0
0.061,1.5625,0,0,0,0,0
0.062,1.4375,0,0,0,0,0
0.063,1.25,0,0,0,0,0
0.064,0.9375,0,0,0,0,0
0.065,0.625,0,0,0,0,0
0.066,0.625,0,0,0,0,0
0.067,0.625,0,0,0,0,0
0.068,0.625,0,0,0,0,0
0.069,0.625,0,0,0,0,0
0.07,0.625,0,0,0,0,0
0.071,0.625,0,0,0,0,0
0.072,1.25,0,0,0,0,0
0.073,1.875,0,0,0,0,0
0.074,2.1875,0,0,0,0,0
0.075,2.5,0,0,0,0,0
0.076,2.5,0,0,0,0,0
0.077,2.5,0,0,0,0,0
0.078,2.8125,0,0,0,0,0
0.079,3.125,0,0,0,0,0
0.08,2.8125,0,0,0,0,0
0.081,2.5,0,0,0,0,0
0.082,1.5625,0,0,0,0,0
0.083,0.625,0,0,0,0,0
0.084,0.1875,0,0,0,0,0
0.085,-0.3125,0,0,0,0,0
0.086,-0.3125,0,0,0,0,0
0.087,-0.3125,0,0,0,0,0
0.088,-0.4375,0,0,0,0,0
0.089,-0.625,0,0,0,0,0
0.09,-0.5,0,0,0,0,0
0.091,-0.3125,0,0,0,0,0
0.092,-0.1875,0,0,0,0,0
0.093,0,0,0,0,0,0
0.094,0.125,0,0,0,0,0
0.095,0.3125,0,0,0,0,0
0.096,0.1875,0,0,0,0,0
0.097,0,0,0,0,0,0
0.098,0.625,0,0,0,0,0
0.099,1.25,0,0,0,0,0
0.1,1.875,0,0,0,0,0
0.101,2.5,0,0,0,0,0
0.102,2.0625,0,0,0,0,0
0.103,1.5625,0,0,0,0,0
0.104,1.125,0,0,0,0,0
0.105,0.625,0,0,0,0,0
0.106,1.375,0,0,0,0,0
0.107,2.1875,0,0,0,0,0
0.108,2.5,0,0,0,0,0
0.109,2.8125,0,0,0,0,0
0.11,2.0625,0,0,0,0,0
0.111,1.25,0,0,0,0,0
0.112,1.375,0,0,0,0,0
0.113,1.5625,0,0,0,0,0
0.114,1.875,0,0,0,0,0
0.115,2.1875,0,0,0,0,0
0.116,1.75,0,0,0,0,0
0.117,1.25,0,0,0,0,0
0.118,1.125,0,0,0,0,0
0.119,0.9375,0,0,0,0,0
0.12,1.25,0,0,0,0,0
0.121,1.5625,0,0,0,0,0
0.122,1.5625,0,0,0,0,0
0.123,1.5625,0,0,0,0,0
0.124,1.5625,0,0,0,0,0
0.125,1.5625,0,0,0,0,0
0.126,1.25,0,0,0,0,0
0.127,0.9375,0,0,0,0,0
0.128,1.5625,0,0,0,0,0
0.129,2.1875,0,0,0,0,0
0.13,2.0625,0,0,0,0,0
0.131,1.875,0,0,0,0,0
0.132,2,0,0,0,0,0
0.133,2.1875,0,0,0,0,0
0.134,2.1875,0,0,0,0,0
0.135,2.1875,0,0,0,0,0
0.136,1.25,0,0,0,0,0
0.137,0.3125,0,0,0,0,0
0.138,0.625,0,0,0,0,0
0.139,0.9375,0,0,0,0,0
0.14,0.8125,0,0,0,0,0
0.141,0.625,0,0,0,0,0
0.142,0.625,0,0,0,0,0
0.143,0.625,0,0,0,0,0
0.144,0.9375,0,0,0,0,0
0.145,1.25,0,0,0,0,0
0.146,2,0,0,0,0,0
0.147,2.8125,0,0,0,0,0
0.148,2.9375,0,0,0,0,0
0.149,3.125,0,0,0,0,0
0.15,2.375,0,0,0,0,0
0.151,1.5625,0,0,0,0,0
0.152,1.6875,0,0,0,0,0
0.153,1.875,0,0,0,0,0
0.154,2,0,0,0,0,0
0.155,2.1875,0,0,0,0,0
0.156,2.1875,0,0,0,0,0
0.157,2.1875,0,0,0,0,0
0.158,1.5625,0,0,0,0,0
0.159,0.9375,0,0,0,0,0
0.16,0.9375,0,0,0,0,0
0.161,0.9375,0,0,0,0,0
0.162,0.9375,0,0,0,0,0
0.163,0.9375,0,0,0,0,0
0.164,1.0625,0,0,0,0,0
0.165,1.25,0,0,0,0,0
0.166,1.125,0,0,0,0,0
0.167,0.9375,0,0,0,0,0
0.168,0.5,0,0,0,0,0
0.169,0,0,0,0,0,0
0.17,-0.125,0,0,0,0,0
0.171,-0.3125,0,0,0,0,0
0.172,-0.1875,0,0,0,0,0
0.173,0,0,0,0,0,0
0.174,0.125,0,0,0,0,0
0.175,0.3125,0,0,0,0,0
0.176,0.3125,0,0,0,0,0
0.177,0.3125,0,0,0,0,0
0.178,1.375,0,0,0,0,0
0.179,2.5,0,0,0,0,0
0.18,2.9375,0,0,0,0,0
0.181,3.4375,0,0,0,0,0
0.182,3.125,0,0,0,0,0
0.183,2.8125,0,0,0,0,0
0.184,2.1875,0,0,0,0,0
0.185,1.5625,0,0,0,0,0
0.186,1.6875,0,0,0,0,0
0.187,1.875,0,0,0,0,0
0.188,2,0,0,0,0,0
0.189,2.1875,0,0,0,0,0
0.19,1.75,0,0,0,0,0
0.191,1.25,0,0,0,0,0
0.192,1.125,0,0,0,0,0
0.193,0.9375,0,0,0,0,0
0.194,0.9375,0,0,0,0,0
0.195,0.9375,0,0,0,0,0
0.196,1.0625,0,0,0,0,0
0.197,1.25,0,0,0,0,0
0.198,1.6875,0,0,0,0,0
0.199,2.1875,0,0,0,0,0
0.2,2.5,0,0,0,0,0
0.201,2.8125,0,0,0,0,0
0.202,3.125,0,0,0,0,0
0.203,3.4375,0,0,0,0,0
0.204,3.125,0,0,0,0,0
0.205,2.8125,0,0,0,0,0
0.206,2.9375,0,0,0,0,0
0.207,3.125,0,0,0,0,0
0.208,3.125,0,0,0,0,0
0.209,3.125,0,0,0,0,0
0.21,3,0,0,0,0,0
0.211,2.8125,0,0,0,0,0
0.212,3.4375,0,0,0,0,0
0.213,4.0625,0,0,0,0,0
0.214,4.0625,0,0,0,0,0
0.215,4.0625,0,0,0,0,0
0.216,3.9375,0,0,0,0,0
0.217,3.75,0,0,0,0,0
0.218,4.375,0,0,0,0,0
0.219,5,0,0,0,0,0
0.22,5,0,0,0,0,0
0.221,5,0,0,0,0,0
0.222,4.5625,0,0,0,0,0
0.223,4.0625,0,0,0,0,0
0.224,3.9375,0,0,0,0,0
0.225,3.75,0,0,0,0,0
0.226,4.1875,0,0,0,0,0
0.227,4.6875,0,0,0,0,0
0.228,5,0,0,0,0,0
0.229,5.3125,0,0,0,0,0
0.23,5.625,0,0,0,0,0
0.231,5.9375,0,0,0,0,0
0.232,6.5625,0,0,0,0,0
0.233,7.1875,0,0,0,0,0
0.234,6.75,0,0,0,0,0
0.235,6.25,0,0,0,0,0
0.236,5.625,0,0,0,0,0
0.237,5,0,0,0,0,0
0.238,4.375,0,0,0,0,0
0.239,3.75,0,0,0,0,0
0.24,4.6875,0,0,0,0,0
0.241,5.625,0,0,0,0,0
0.242,5.625,0,0,0,0,0
0.243,5.625,0,0,0,0,0
0.244,5.75,0,0,0,0,0
0.245,5.9375,0,0,0,0,0
0.246,5.9375,0,0,0,0,0
0.247,5.9375,0,0,0,0,0
0.248,5.1875,0,0,0,1,0
0.249,4.375,0,0,0,0,0
0.25,4.375,0,0,0,0,0
0.251,4.375,0,0,0,0,0
0.252,4.5,0,0,0,0,0
0.253,4.6875,0,0,0,0,0
0.254,4.6875,0,0,0,0,0
0.255,4.6875,0,0,0,0,0
0.256,4.25,0,0,0,0,0
0.257,3.75,0,0,0,0,0
0.258,4.0625,0,0,0,0,0
0.259,4.375,0,0,0,0,0
0.26,4.25,0,0,0,0,0
0.261,4.0625,0,0,0,0,0
0.262,3.9375,0,0,0,0,0
0.263,3.75,0,0,0,0,0
0.264,4.0625,0,0,0,0,0
0.265,4.375,0,0,0,0,0
0.266,4.8125,0,0,0,0,0
0.267,5.3125,0,0,0,0,0
0.268,5.75,0,0,0,0,0
0.269,6.25,0,0,0,0,0
0.27,5.8125,0,0,0,0,0
0.271,5.3125,0,0,0,0,0
0.272,5,0,0,0,0,0
0.273,4.6875,0,0,0,0,0
0.274,4.25,0,0,0,0,0
0.275,3.75,0,0,0,0,0
0.276,3.125,0,0,0,0,0
0.277,2.5,0,0,0,0,0
0.278,3.25,0,0,0,0,0
0.279,4.0625,0,0,0,0,0
0.28,4.375,0,0,0,0,0
0.281,4.6875,0,0,0,0,0
0.282,4.375,0,0,0,0,0
0.283,4.0625,0,0,0,0,0
0.284,3.625,0,0,0,0,0
0.285,3.125,0,0,0,0,0
0.286,3,0,0,0,0,0
0.287,2.8125,0,0,0,0,0
0.288,2.9375,0,0,0,0,0
0.289,3.125,0,0,0,0,0
0.29,3.125,0,0,0,0,0
0.291,3.125,0,0,0,0,0
0.292,3.25,0,0,0,0,0
0.293,3.4375,0,0,0,0,0
0.294,3.4375,0,0,0,0,0
0.295,3.4375,0,0,0,0,0
0.296,3.5625,0,0,0,0,0
0.297,3.75,0,0,0,0,0
0.298,3.75,0,0,0,0,0
0.299,3.75,0,0,0,0,0
0.3,3.875,0,0,0,0,0
0.301,4.0625,0,0,0,0,0
0.302,3.9375,0,0,0,0,0
0.303,3.75,0,0,0,0,0
0.304,3.625,0,0,0,0,0
0.305,3.4375,0,0,0,0,0
0.306,3.75,0,0,0,0,0
0.307,4.0625,0,0,0,0,0
0.308,4.1875,0,0,0,0,0
0.309,4.375,0,0,0,0,0
0.31,4.6875,0,0,0,0,0
0.311,5,0,0,0,0,0
0.312,4.25,0,0,0,0,0
0.313,3.4375,0,0,0,0,0
0.314,3.3125,0,0,0,0,0
0.315,3.125,0,0,0,0,0
0.316,3.4375,0,0,0,0,0
0.317,3.75,0,0,0,0,0
0.318,4.0625,0,0,0,0,0
0.319,4.375,0,0,0,0,0
0.32,4.5,0,0,0,0,0
0.321,4.6875,0,0,0,0,0
0.322,4.5625,0,0,0,0,0
0.323,4.375,0,0,0,0,0
0.324,3.9375,0,0,0,0,0
0.325,3.4375,0,0,0,0,0
0.326,3.125,0,0,0,0,0
0.327,2.8125,0,0,0,0,0
0.328,2.6875,0,0,0,0,0
0.329,2.5,0,0,0,0,0
0.33,3.4375,0,0,0,0,0
0.331,4.375,0,0,0,0,0
0.332,4.5,0,0,0,0,0
0.333,4.6875,0,0,0,0,0
0.334,4.5625,0,0,0,0,0
0.335,4.375,0,0,0,0,0
0.336,4.0625,0,0,0,0,0
0.337,3.75,0,0,0,0,0
0.338,4.5,0,0,0,0,0
0.339,5.3125,0,0,0,0,0
0.34,5,0,0,0,0,0
0.341,4.6875,0,0,0,0,0
0.342,4.6875,0,0,0,0,0
0.343,4.6875,0,0,0,0,0
0.344,4.5625,0,0,0,0,0
0.345,4.375,0,0,0,0,0
0.346,3.75,0,0,0,0,0
0.347,3.125,0,0,0,0,0
0.348,2.8125,0,0,0,0,0
0.349,2.5,0,0,0,0,0
0.35,2.5,0,0,0,0,0
0.351,2.5,0,0,0,0,0
0.352,2.625,0,0,0,0,0
0.353,2.8125,0,0,0,0,0
0.354,2.9375,0,0,0,0,0
0.355,3.125,0,0,0,0,0
0.356,3.25,0,0,0,0,0
0.357,3.4375,0,0,0,0,0
0.358,3.5625,0,0,0,0,0
0.359,3.75,0,0,0,0,0
0.36,3.75,0,0,0,0,0
0.361,3.75,0,0,0,0,0
0.362,3.75,0,0,0,0,0
0.363,3.75,0,0,0,0,0
0.364,3.4375,0,0,0,0,0
0.365,3.125,0,0,0,0,0
0.366,3.125,0,0,0,0,0
0.367,3.125,0,0,0,0,0
0.368,3.25,0,0,0,0,0
0.369,3.4375,0,0,0,0,0
0.37,3.4375,0,0,0,0,0
0.371,3.4375,0,0,0,0,0
0.372,3.4375,0,0,0,0,0
0.373,3.4375,0,0,0,0,0
0.374,3.3125,0,0,0,0,0
0.375,3.125,0,0,0,0,0
0.376,2.5,0,0,0,0,0
0.377,1.875,0,0,0,0,0
0.378,2,0,0,0,0,0
0.379,2.1875,0,0,0,0,0
0.38,2.0625,0,0,0,0,0
0.381,1.875,0,0,0,0,0
0.382,1.4375,0,0,0,0,0
0.383,0.9375,0,0,0,0,0
0.384,0.625,0,0,0,0,0
0.385,0.3125,0,0,0,0,1
0.386,0.9375,0,0,0,0,0
0.387,1.5625,0,0,0,0,0
0.388,2,0,0,0,0,0
0.389,2.5,0,0,0,0,0
0.39,2.8125,0,0,0,0,0
0.391,3.125,0,0,0,0,0
0.392,3.4375,0,0,0,0,0
0.393,3.125,0,0,0,0,0
0.394,3,0,0,0,0,0
0.395,2.8125,0,0,0,0,0
0.396,2.1875,0,0,0,0,0
0.397,2.1875,0,0,0,0,0
0.398,1.75,0,0,0,0,0
0.399,1.25,0,0,0,0,0
0.4,1.875,0,0,0,0,0
0.401,1.875,0,0,0,0,0
0.402,2.1875,0,0,0,0,0
0.403,2.1875,0,0,0,0,0
0.404,3.25,0,0,0,0,0
0.405,4.375,0,0,0,0,0
0.406,4.0625,0,0,0,0,0
0.407,4.0625,0,0,0,0,0
0.408,4.375,0,0,0,0,0
0.409,3.125,0,0,0,0,0
0.41,3.25,0,0,0,0,0
0.411,3.75,0,0,0,0,0
0.412,4.0625,0,0,0,0,0
0.413,4.6875,0,0,0,0,0
0.414,5,0,0,0,0,0
0.415,5,0,0,0,0,0
0.416,3.9375,0,0,0,0,0
0.417,3.4375,0,0,0,0,0
0.418,3.3125,0,0,0,0,0
0.419,2.8125,0,0,0,0,0
0.42,2.8125,0,0,0,0,0
0.421,2.8125,0,0,0,0,0
0.422,1.75,0,0,0,0,0
0.423,0.625,0,0,0,0,0
0.424,-0.625,0,0,0,0,0
0.425,-1.25,0,0,0,0,0
0.426,0,0,0,0,0,0
0.427,0.9375,0,0,0,0,0
0.428,0.9375,0,0,0,0,0
0.429,1.25,0,0,0,0,0
0.43,1.5625,0,0,0,0,0
0.431,2.1875,0,0,0,0,0
0.432,2.5,0,0,0,0,0
0.433,3.4375,0,0,0,0,0
0.434,3.75,0,0,0,0,0
0.435,4.0625,0,0,0,0,0
0.436,3,0,0,0,0,0
0.437,2.5,0,0,0,0,0
0.438,2.8125,0,0,0,0,0
0.439,2.8125,0,0,0,0,0
0.44,2.8125,0,0,0,0,0
0.441,2.8125,0,0,0,0,0
0.442,3.125,0,0,0,0,0
0.443,3.4375,0,0,0,0,0
0.444,3,0,0,0,0,0
0.445,2.8125,0,0,0,0,0
0.446,2.1875,0,0,0,0,0
0.447,2.1875,0,0,0,0,0
0.448,3.125,0,0,0,0,0
0.449,3.75,0,0,0,0,0
0.45,2.9375,0,0,0,0,0
0.451,2.8125,0,0,0,0,0
0.452,3.3125,0,0,0,0,0
0.453,3.4375,0,0,0,0,0
0.454,3.5625,0,0,0,0,0
0.455,3.4375,0,0,0,0,0
0.456,3,0,0,0,0,0
0.457,2.8125,0,0,0,0,0
0.458,3.25,0,0,0,0,0
0.459,3.125,0,0,0,0,0
0.46,3.125,0,0,0,0,0
0.461,3.125,0,0,0,0,0
0.462,3.125,0,0,0,0,0
0.463,3.125,0,0,0,0,0
0.464,3.5625,0,0,0,0,0
0.465,4.375,0,0,0,0,0
0.466,4.1875,0,0,0,0,0
0.467,4.375,0,0,0,0,0
0.468,5.125,0,0,0,0,0
0.469,5.3125,0,0,0,0,0
0.47,3.4375,0,0,0,0,0
0.471,2.1875,0,0,0,0,0
0.472,1.75,0,0,0,0,0
0.473,0.9375,0,0,0,0,0
0.474,1.0625,0,0,0,0,0
0.475,1.25,0,0,0,0,0
0.476,1.6875,0,0,0,0,0
0.477,1.875,0,0,0,0,0
0.478,1.75,0,0,0,0,0
0.479,1.875,0,0,0,0,0
0.48,2.5,0,0,0,0,0
0.481,2.8125,0,0,0,0,0
0.482,3.125,0,0,0,0,0
0.483,3.125,0,0,0,0,0
0.484,3.125,0,0,0,0,0
0.485,3.125,0,0,0,0,0
0.486,3.125,0,0,0,0,0
0.487,3.75,0,0,0,0,0
0.488,3.875,0,0,0,0,0
0.489,4.375,0,0,0,0,0
0.49,4.375,0,0,0,0,0
0.491,4.375,0,0,0,0,0
0.492,5.625,0,0,0,0,0
0.493,5.9375,0,0,0,0,0
0.494,5.3125,0,0,0,0,0
0.495,4.6875,0,0,0,0,0
0.496,4.375,0,0,0,0,0
0.497,3.4375,0,0,0,0,0
0.498,2.1875,0,0,0,0,0
0.499,1.25,0,0,0,0,0
0.5,1.375,0,0,0,0,0
0.501,1.25,0,0,0,0,0
0.502,1.125,0,0,0,0,0
0.503,1.5625,0,0,0,0,0
0.504,1.75,0,0,0,0,0
0.505,1.5625,0,0,0,0,0
0.506,2,0,0,0,0,0
0.507,2.1875,0,0,0,0,0
0.508,2.1875,0,0,0,0,0
0.509,2.1875,0,0,0,0,0
0.51,2.1875,0,0,0,0,0
0.511,2.1875,0,0,0,0,0
0.512,2.3125,0,0,0,0,0
0.513,2.1875,0,0,0,0,0
0.514,2.5,0,0,0,0,0
0.515,3.125,0,0,0,0,0
0.516,2.625,0,0,0,0,0
0.517,2.5,0,0,0,0,0
0.518,2.1875,0,0,0,0,0
0.519,1.875,0,0,0,0,0
0.52,2.3125,0,0,0,0,0
0.521,2.1875,0,0,0,0,0
0.522,2.0625,0,0,0,0,0
0.523,1.875,0,0,0,0,0
0.524,1.375,0,0,0,0,0
0.525,1.5625,0,0,0,0,0
0.526,3.125,0,0,0,0,0
0.527,4.0625,0,0,0,0,0
0.528,4.375,0,0,0,0,0
0.529,4.0625,0,0,0,0,0
0.53,3.4375,0,0,0,0,0
0.531,3.125,0,0,0,0,0
0.532,2.8125,0,0,0,0,0
0.533,2.8125,0,0,0,0,0
0.534,3.125,0,0,0,0,0
0.535,3.4375,0,0,0,0,0
0.536,2.9375,0,0,0,0,0
0.537,4.0625,0,0,0,0,0
0.538,4.875,0,0,0,0,0
0.539,5,0,0,0,0,0
0.54,5.625,0,0,0,0,0
0.541,5.9375,0,0,0,0,0
0.542,4.875,0,0,0,0,0
0.543,3.75,0,0,0,0,0
0.544,3.625,0,0,0,0,0
0.545,4.0625,0,0,0,0,0
0.546,5.125,0,0,0,0,0
0.547,5.625,0,0,0,0,0
0.548,5.125,0,0,0,0,0
0.549,5,0,0,0,0,0
0.55,5.1875,0,0,0,0,0
0.551,5,0,0,0,0,0
0.552,4.6875,0,0,0,0,0
0.553,3.75,0,0,0,0,0
0.554,2.8125,0,0,0,0,0
0.555,1.25,0,0,0,0,0
0.556,0.5,0,0,0,0,0
0.557,0.3125,0,0,0,0,0
0.558,0.1875,0,0,0,0,0
0.559,0.3125,0,0,0,0,0
0.56,0.9375,0,0,0,0,0
0.561,1.5625,0,0,0,0,0
0.562,1.6875,0,0,0,0,0
0.563,1.5625,0,0,0,0,0
0.564,1.375,0,0,0,0,0
0.565,1.25,0,0,0,0,0
0.566,2,0,0,0,0,0
0.567,2.5,0,0,0,0,0
0.568,2.625,0,0,0,0,0
0.569,2.5,0,0,0,0,0
0.57,2.1875,0,0,0,0,0
0.571,1.25,0,0,0,0,0
0.572,0.8125,0,0,0,0,0
0.573,0.9375,0,0,0,0,0
0.574,1.5625,0,0,0,0,0
0.575,1.875,0,0,0,0,0
0.576,2.1875,0,0,0,0,0
0.577,2.8125,0,0,0,0,0
0.578,3.25,0,0,0,0,0
0.579,3.4375,0,0,0,0,0
0.58,3.3125,0,0,0,0,0
0.581,3.75,0,0,0,0,0
0.582,4.1875,0,0,0,0,0
0.583,3.75,0,0,0,0,0
0.584,3.125,0,0,0,0,0
0.585,2.8125,0,0,0,0,0
0.586,2.9375,0,0,0,0,0
0.587,2.8125,0,0,0,0,0
0.588,2.375,0,0,0,0,0
0.589,2.5,0,0,0,0,0
0.59,2.9375,0,0,0,0,0
0.591,2.8125,0,0,0,0,0
0.592,3,0,0,0,0,0
0.593,2.8125,0,0,0,0,0
0.594,3.4375,0,0,0,0,0
0.595,3.75,0,0,0,0,0
0.596,3.3125,0,0,0,0,0
0.597,3.125,0,0,0,0,0
0.598,3.3125,0,0,0,0,0
0.599,3.4375,0,0,0,0,0
0.6,3.4375,0,0,0,0,0
0.601,3.75,0,0,0,0,0
0.602,4.0625,0,0,0,0,0
0.603,4.6875,0,0,0,0,0
0.604,5.125,0,0,0,0,0
0.605,5.3125,0,0,0,0,0
0.606,5.9375,0,0,0,0,0
0.607,6.25,0,0,0,0,0
0.608,6.375,0,0,0,0,0
0.609,5.3125,0,0,0,0,0
0.61,4.6875,0,0,0,0,0
0.611,4.0625,0,0,0,0,0
0.612,3.3125,0,0,0,0,0
0.613,3.4375,0,0,0,0,0
0.614,3.125,0,0,0,0,0
0.615,3.125,0,0,0,0,0
0.616,2.5,0,0,0,0,0
0.617,1.875,0,0,0,0,0
0.618,1.4375,0,0,0,0,0
0.619,1.5625,0,0,0,0,0
0.62,1.6875,0,0,0,0,0
0.621,1.5625,0,0,0,0,0
0.622,1.6875,0,0,0,0,0
0.623,2.1875,0,0,0,0,0
0.624,2.1875,0,0,0,0,0
0.625,2.1875,0,0,0,0,0
0.626,2.3125,0,0,0,0,0
0.627,2.8125,0,0,0,0,0
0.628,2.625,0,0,0,0,0
0.629,2.8125,0,0,0,0,0
0.63,2.5,0,0,0,0,0
0.631,2.5,0,0,0,0,0
0.632,2.375,0,0,0,0,0
0.633,2.1875,0,0,0,0,0
0.634,2.8125,0,0,0,0,0
0.635,2.5,0,0,0,0,0
0.636,2.1875,0,0,0,0,0
0.637,2.5,0,0,0,0,0
0.638,2.8125,0,0,0,0,0
0.639,2.8125,0,0,0,0,0
0.64,2.8125,0,0,0,0,0
0.641,3.125,0,0,0,0,0
0.642,3,0,0,0,0,0
0.643,2.8125,0,0,0,0,0
0.644,2.6875,0,0,0,0,0
0.645,2.5,0,0,0,0,0
0.646,2.6875,0,0,0,0,0
0.647,2.5,0,0,0,0,0
0.648,2.9375,0,0,0,0,0
0.649,3.4375,0,0,0,0,0
0.65,3.25,0,0,0,0,0
0.651,3.75,0,0,0,0,0
0.652,4.8125,0,0,0,0,0
0.653,5,0,0,0,0,0
0.654,4.875,0,0,0,0,0
0.655,4.0625,0,0,0,0,0
0.656,5,0,0,0,0,0
0.657,5.9375,0,0,0,0,0
0.658,6.125,0,0,0,0,0
0.659,5.9375,0,0,0,0,0
0.66,6.4375,0,0,0,0,0
0.661,6.5625,0,0,0,0,0
0.662,5.8125,0,0,0,0,0
0.663,4.6875,0,0,0,0,0
0.664,5.125,0,0,0,0,0
0.665,6.5625,0,0,0,0,0
0.666,6.875,0,0,0,0,0
0.667,6.5625,0,0,0,0,0
0.668,5.3125,0,0,0,0,0
0.669,4.375,0,0,0,0,0
0.67,4.0625,0,0,0,0,0
0.671,3.75,0,0,0,0,0
0.672,3.125,0,0,0,0,0
0.673,2.8125,0,0,0,0,0
0.674,3.3125,0,0,0,0,0
0.675,2.8125,0,0,0,0,0
0.676,2.1875,0,0,0,0,0
0.677,1.5625,0,0,0,0,0
0.678,2.1875,0,0,0,0,0
0.679,2.1875,0,0,0,0,0
0.68,3.4375,0,0,0,0,0
0.681,4.375,0,0,0,0,0
0.682,3.75,0,0,0,0,0
0.683,3.125,0,0,0,0,0
0.684,3.25,0,0,0,0,0
0.685,3.4375,0,0,0,0,0
0.686,4.375,0,0,0,0,0
0.687,4.6875,0,0,0,0,0
0.688,4.5625,0,0,0,0,0
0.689,4.375,0,0,0,0,0
0.69,4.375,0,0,0,0,0
0.691,4.0625,0,0,0,0,0
0.692,4.375,0,0,0,0,0
0.693,4.6875,0,0,0,0,0
0.694,5.4375,0,0,0,0,0
0.695,5.9375,0,0,0,0,0
0.696,5.3125,0,0,0,0,0
0.697,5.3125,0,0,0,0,0
0.698,5,0,0,0,0,0
0.699,5.3125,0,0,0,0,0
0.7,5.9375,0,0,0,0,0
0.701,5.9375,0,0,0,0,0
0.702,5.75,0,0,0,0,0
0.703,5.9375,0,0,0,0,0
0.704,5.8125,0,0,0,0,0
0.705,5.9375,0,0,0,0,0
0.706,7,0,0,0,0,0
0.707,8.4375,0,0,0,0,0
0.708,8.5625,0,0,0,0,0
0.709,8.75,0,0,0,0,0
0.71,8.4375,0,0,0,0,0
0.711,9.375,0,0,0,0,0
0.712,9.6875,0,0,0,0,0
0.713,9.6875,0,0,0,0,0
0.714,8.75,0,0,0,0,0
0.715,8.4375,0,0,0,0,0
0.716,7.1875,0,0,0,0,0
0.717,6.25,0,0,0,0,0
0.718,6.375,0,0,0,0,0
0.719,5.9375,0,0,0,0,0
0.72,5.8125,0,0,0,0,0
0.721,5.9375,0,0,0,0,0
0.722,5.1875,0,0,0,0,0
0.723,5,0,0,0,0,0
0.724,5.3125,0,0,0,0,0
0.725,5,0,0,0,0,0
0.726,5.4375,0,0,0,0,0
0.727,5.3125,0,0,0,0,0
0.728,5,0,0,0,0,0
0.729,5,0,0,0,0,0
0.73,4.5625,0,0,0,0,0
0.731,3.75,0,0,0,0,0
0.732,3.75,0,0,0,0,0
0.733,3.75,0,0,0,0,0
0.734,3.75,0,0,0,0,0
0.735,3.4375,0,0,0,0,0
0.736,3.75,0,0,0,0,0
0.737,4.0625,0,0,0,0,0
0.738,3.5625,0,0,0,0,0
0.739,4.375,0,0,0,0,0
0.74,4.8125,0,0,0,0,0
0.741,5,0,0,0,0,0
0.742,4.375,0,0,0,0,0
0.743,4.375,0,0,0,0,0
0.744,4.0625,0,0,0,0,0
0.745,4.0625,0,0,0,0,0
0.746,5.3125,0,0,0,0,0
0.747,5.9375,0,0,0,0,0
0.748,6.25,0,0,0,0,0
0.749,6.5625,0,0,0,0,0
0.75,6.25,0,0,0,0,0
0.751,6.25,0,0,0,0,0
0.752,6.4375,0,0,0,0,0
0.753,6.25,0,0,0,0,0
0.754,6.875,0,0,0,0,0
0.755,7.1875,0,0,0,0,0
0.756,6.875,0,0,0,0,0
0.757,6.875,0,0,0,0,0
0.758,6.875,0,0,0,0,0
0.759,6.875,0,0,0,0,0
0.76,6.4375,0,0,0,0,0
0.761,6.5625,0,0,0,0,0
0.762,5.625,0,0,0,0,0
0.763,4.6875,0,0,0,0,0
0.764,3.625,0,0,0,0,0
0.765,2.5,0,0,0,0,0
0.766,2.0625,0,0,0,0,0
0.767,1.875,0,0,0,0,0
0.768,1.25,0,0,0,0,0
0.769,0.625,0,0,0,0,0
0.77,0.625,0,0,0,0,0
0.771,0.625,0,0,0,0,0
0.772,0.125,0,0,0,0,0
0.773,0.625,0,0,0,0,0
0.774,1.0625,0,0,0,0,0
0.775,1.5625,0,0,0,0,0
0.776,1.25,0,0,0,0,0
0.777,1.25,0,0,0,0,0
0.778,2,0,0,0,0,0
0.779,2.5,0,0,0,0,0
0.78,2.5,0,0,0,0,0
0.781,2.5,0,0,0,0,0
0.782,2.5,0,0,0,0,0
0.783,2.8125,0,0,0,0,0
0.784,2.0625,0,0,0,0,0
0.785,2.1875,0,0,0,0,0
0.786,3.25,0,0,0,0,0
0.787,3.125,0,0,0,0,0
0.788,2.9375,0,0,0,0,0
0.789,3.125,0,0,0,0,0
0.79,3,0,0,0,0,0
0.791,3.125,0,0,0,0,0
0.792,2.8125,0,0,0,0,0
0.793,2.5,0,0,0,0,0
0.794,2.5,0,0,0,0,0
0.795,2.1875,0,0,0,0,0
0.796,2.1875,0,0,0,0,0
0.797,1.875,0,0,0,0,0
0.798,2.9375,0,0,0,0,0
0.799,3.125,0,0,0,0,0
0.8,2.8125,0,0,0,0,0
0.801,3.4375,0,0,0,0,0
0.802,3.4375,0,0,0,0,0
0.803,3.75,0,0,0,0,0
0.804,3.5625,0,0,0,0,0
0.805,3.4375,0,0,0,0,0
0.806,3.875,0,0,0,0,0
0.807,4.0625,0,0,0,0,0
0.808,3.9375,0,0,0,0,0
0.809,3.75,0,0,0,0,0
0.81,4.0625,0,0,0,0,0
0.811,3.75,0,0,0,0,0
0.812,3.75,0,0,0,0,0
0.813,3.75,0,0,0,0,0
0.814,4.0625,0,0,0,0,0
0.815,3.75,0,0,0,0,0
0.816,4.0625,0,0,0,0,0
0.817,4.0625,0,0,0,0,0
0.818,4.0625,0,0,0,0,0
0.819,4.0625,0,0,0,0,0
0.82,2.8125,0,0,0,0,0
0.821,1.875,0,0,0,0,0
0.822,0.5,0,0,0,0,0
0.823,-0.625,0,0,0,0,0
0.824,-0.9375,0,0,0,0,0
0.825,-0.625,0,0,0,0,0
0.826,-0.5,0,0,0,0,0
0.827,0.3125,0,0,0,0,0
0.828,0.8125,0,0,0,0,0
0.829,0.625,0,0,0,0,0
0.83,0,0,0,0,0,0
0.831,0,0,0,0,0,0
0.832,0.4375,0,0,0,0,0
0.833,1.25,0,0,0,0,0
0.834,2.3125,0,0,0,0,0
0.835,3.125,0,0,0,0,0
0.836,3,0,0,0,0,0
0.837,2.8125,0,0,0,0,0
0.838,3.25,0,0,0,0,0
0.839,3.75,0,0,0,0,0
0.84,4.1875,0,0,0,0,0
0.841,4.6875,0,0,0,0,0
0.842,4.5625,0,0,0,0,0
0.843,4.375,0,0,0,0,0
0.844,4.5625,0,0,0,0,0
0.845,3.75,0,0,0,0,0
0.846,3.125,1,0,0,0,0
0.847,3.75,0,0,0,0,0
0.848,3.75,0,0,0,0,0
0.849,3.75,0,0,0,0,0
0.85,3.875,0,0,0,0,0
0.851,4.6875,0,0,0,0,0
0.852,4.6875,0,0,0,0,0
0.853,4.6875,0,0,0,0,0
0.854,5.5,0,0,0,0,0
0.855,5.3125,0,0,0,0,0
0.856,5.9375,0,0,0,0,0
0.857,6.25,0,0,0,0,0
0.858,7.5,0,0,0,0,0
0.859,9.0625,0,0,0,0,0
0.86,10.188,0,0,0,0,0
0.861,11.25,0,0,0,0,0
0.862,11.75,0,0,0,0,0
0.863,12.5,0,0,0,0,0
0.864,13.313,0,0,0,0,0
0.865,14.375,0,0,0,0,0
0.866,16.25,0,0,0,0,0
0.867,18.438,0,0,0,0,0
0.868,19.688,0,0,0,0,0
0.869,20.938,0,0,0,0,0
0.87,22.625,0,0,0,0,0
0.871,25.313,0,0,0,0,0
0.872,27.188,0,0,0,0,0
0.873,29.688,0,0,0,0,0
0.874,31.563,0,0,0,0,0
0.875,34.375,0,0,0,0,0
0.876,36.563,0,0,0,0,0
0.877,38.75,0,0,0,0,0
0.878,41.438,0,0,0,0,0
0.879,45,0,0,0,0,0
0.88,49.188,0,0,0,0,0
0.881,52.813,0,0,0,0,0
0.882,55.75,0,0,0,0,0
0.883,58.75,0,0,0,0,0
0.884,60.5,0,0,0,0,0
0.885,61.25,0,0,0,0,0
0.886,62.188,0,0,0,0,0
0.887,62.813,0,0,0,0,0
0.888,63.75,0,0,0,0,0
0.889,64.375,0,1,0,0,0
0.89,64.375,0,0,0,0,0
0.891,64.375,0,0,0,0,0
0.892,63.75,0,0,0,0,0
0.893,63.125,0,0,0,0,0
0.894,62.938,0,0,0,0,0
0.895,61.875,0,0,0,0,0
0.896,60.625,0,0,0,0,0
0.897,59.063,0,0,0,0,0
0.898,57.688,0,0,0,0,0
0.899,56.875,0,0,0,0,0
0.9,56.063,0,0,0,0,0
0.901,55.313,0,0,0,0,0
0.902,52.688,0,0,0,0,0
0.903,48.75,0,0,0,0,0
0.904,43.875,0,0,0,0,0
0.905,39.063,0,0,0,0,0
0.906,34.375,0,0,0,0,0
0.907,29.688,0,0,0,0,0
0.908,26.063,0,0,0,0,0
0.909,22.5,0,0,0,0,0
0.91,19.375,0,0,0,0,0
0.911,17.188,0,0,0,0,0
0.912,16.563,0,0,0,0,0
0.913,16.563,0,0,0,0,0
0.914,15,0,0,0,0,0
0.915,12.813,0,0,0,0,0
0.916,10.438,0,0,0,0,0
0.917,8.75,0,0,0,0,0
0.918,7.5,0,0,0,0,0
0.919,5.9375,0,0,0,0,0
0.92,5,0,0,0,0,0
0.921,3.75,0,0,0,0,0
0.922,2.5,0,0,1,0,0
0.923,2.8125,0,0,0,0,0
0.924,2.6875,0,0,0,0,0
0.925,2.5,0,0,0,0,0
0.926,2.8125,0,0,0,0,0
0.927,2.5,0,0,0,0,0
0.928,2.9375,0,0,0,0,0
0.929,2.8125,0,0,0,0,0
0.93,2.375,0,0,0,0,0
0.931,1.5625,0,0,0,0,0
0.932,0.9375,0,0,0,0,0
0.933,1.25,0,0,0,0,0
0.934,0.1875,0,0,0,0,0
0.935,-1.25,0,0,0,0,0
0.936,-1.0625,0,0,0,0,0
0.937,-1.25,0,0,0,0,0
0.938,-0.3125,0,0,0,0,0
0.939,0.9375,0,0,0,0,0
0.94,0.9375,0,0,0,0,0
0.941,1.5625,0,0,0,0,0
0.942,0.8125,0,0,0,0,0
0.943,0,0,0,0,0,0
0.944,-0.3125,0,0,0,0,0
0.945,0,0,0,0,0,0
0.946,0.9375,0,0,0,0,0
0.947,1.25,0,0,0,0,0
0.948,2.0625,0,0,0,0,0
0.949,1.875,0,0,0,0,0
0.95,1.5625,0,0,0,0,0
0.951,1.25,0,0,0,0,0
0.952,0.625,0,0,0,0,0
0.953,0.625,0,0,0,0,0
0.954,0.8125,0,0,0,0,0
0.955,0.625,0,0,0,0,0
0.956,0.1875,0,0,0,0,0
0.957,0.3125,0,0,0,0,0
0.958,0.4375,0,0,0,0,0
0.959,0,0,0,0,0,0
0.96,0.75,0,0,0,0,0
0.961,0.625,0,0,0,0,0
0.962,0,0,0,0,0,0
0.963,0.625,0,0,0,0,0
0.964,1.6875,0,0,0,0,0
0.965,2.5,0,0,0,0,0
0.966,1.875,0,0,0,0,0
0.967,1.25,0,0,0,0,0
0.968,1.125,0,0,0,0,0
0.969,1.25,0,0,0,0,0
0.97,1.5625,0,0,0,0,0
0.971,1.875,0,0,0,0,0
0.972,2.1875,0,0,0,0,0
0.973,2.1875,0,0,0,0,0
0.974,2.1875,0,0,0,0,0
0.975,2.1875,0,0,0,0,0
0.976,2.1875,0,0,0,0,0
0.977,2.1875,0,0,0,0,0
0.978,1.875,0,0,0,0,0
0.979,0.625,0,0,0,0,0
0.98,0.1875,0,0,0,0,0
0.981,-0.3125,0,0,0,0,0
0.982,-1.0625,0,0,0,0,0
0.983,-1.5625,0,0,0,0,0
0.984,-1.875,0,0,0,0,0
0.985,-2.1875,0,0,0,0,0
0.986,-1.6875,0,0,0,0,0
0.987,-1.25,0,0,0,0,0
0.988,-0.8125,0,0,0,0,0
0.989,-0.3125,0,0,0,0,0
0.99,-0.1875,0,0,0,0,0
0.991,0,0,0,0,0,0
0.992,0.3125,0,0,0,0,0
0.993,0.625,0,0,0,0,0
0.994,0.9375,0,0,0,0,0
0.995,1.25,0,0,0,0,0
0.996,1.6875,0,0,0,0,0
0.997,1.875,0,0,0,0,0
0.998,1.5625,0,0,0,0,0
0.999,1.875,0,0,0,0,0
1,1.875,0,0,0,0,0
1.001,1.875,0,0,0,0,0
1.002,1.5625,0,0,0,0,0
1.003,1.5625,0,0,0,0,0
1.004,0.9375,0,0,0,0,0
1.005,0.9375,0,0,0,0,0
1.006,1.0625,0,0,0,0,0
1.007,0.9375,0,0,0,0,0
1.008,0.8125,0,0,0,0,0
1.009,0.9375,0,0,0,0,0
1.01,-0.125,0,0,0,0,0
1.011,-0.625,0,0,0,0,0
1.012,0,0,0,0,0,0
1.013,-0.625,0,0,0,0,0
1.014,-0.125,0,0,0,0,0
1.015,0,0,0,0,0,0
1.016,0,0,0,0,0,0
1.017,0,0,0,0,0,0
1.018,0.4375,0,0,0,0,0
1.019,0.625,0,0,0,0,0
1.02,0,0,0,0,0,0
1.021,0,0,0,0,0,0
1.022,0.75,0,0,0,0,0
1.023,0.9375,0,0,0,0,0
1.024,1.25,0,0,0,0,0
1.025,1.25,0,0,0,0,0
1.026,0.9375,0,0,0,0,0
1.027,0.9375,0,0,0,0,0
1.028,0.5,0,0,0,0,0
1.029,0.3125,0,0,0,0,0
1.03,0.9375,0,0,0,0,0
1.031,0.9375,0,0,0,0,0
1.032,0.8125,0,0,0,0,0
1.033,0.9375,0,0,0,0,0
1.034,0.625,0,0,0,0,0
1.035,0,0,0,0,0,0
1.036,-0.75,0,0,0,0,0
1.037,-0.625,0,0,0,0,0
1.038,0,0,0,0,0,0
1.039,0,0,0,0,0,0
1.04,0.3125,0,0,0,0,0
1.041,0.9375,0,0,0,0,0
1.042,0.8125,0,0,0,0,0
1.043,0.9375,0,0,0,0,0
1.044,0.9375,0,0,0,0,0
1.045,0.9375,0,0,0,0,0
1.046,0.9375,0,0,0,0,0
1.047,0.625,0,0,0,0,0
1.048,0.75,0,0,0,0,0
1.049,0.3125,0,0,0,0,0
1.05,0.625,0,0,0,0,0
1.051,-0.9375,0,0,0,0,0
1.052,-1.25,0,0,0,0,0
1.053,-0.625,0,0,0,0,0
1.054,-0.625,0,0,0,0,0
1.055,-0.3125,0,0,0,0,0
1.056,0.3125,0,0,0,0,0
1.057,0,0,0,0,0,0
1.058,0.3125,0,0,0,0,0
1.059,0.625,0,0,0,0,0
1.06,1.0625,0,0,0,0,0
1.061,1.25,0,0,0,0,0
1.062,0.625,0,0,0,0,0
1.063,0.625,0,0,0,0,0
1.064,0,0,0,0,0,0
1.065,0,0,0,0,0,0
1.066,-0.3125,0,0,0,0,0
1.067,-0.625,0,0,0,0,0
1.068,0.3125,0,0,0,0,0
1.069,0.9375,0,0,0,0,0
1.07,0.625,0,0,0,0,0
1.071,0.9375,0,0,0,0,0
1.072,1.25,0,0,0,0,0
1.073,1.25,0,0,0,0,0
1.074,0.8125,0,0,0,0,0
1.075,0,0,0,0,0,0
1.076,-1.0625,0,0,0,0,0
1.077,-1.875,0,0,0,0,0
1.078,-1.5625,0,0,0,0,0
1.079,-1.25,0,0,0,0,0
1.08,-1.75,0,0,0,0,0
1.081,-1.25,0,0,0,0,0
1.082,-1.25,0,0,0,0,0
1.083,0.3125,0,0,0,0,0
1.084,0.4375,0,0,0,0,0
1.085,0,0,0,0,0,0
1.086,-0.125,0,0,0,0,0
1.087,-0.9375,0,0,0,0,0
1.088,0.1875,0,0,0,0,0
1.089,0,0,0,0,0,0
1.09,0.625,0,0,0,0,0
1.091,0.3125,0,0,0,0,0
1.092,0.75,0,0,0,0,0
1.093,1.875,0,0,0,0,0
1.094,1.4375,0,0,0,0,0
1.095,0.625,0,0,0,0,0
1.096,0.3125,0,0,0,0,0
1.097,0,0,0,0,0,0
1.098,0,0,0,0,0,0
1.099,-0.3125,0,0,0,0,0
1.1,0.125,0,0,0,0,0
1.101,0.3125,0,0,0,0,0
1.102,-0.625,0,0,0,0,0
1.103,-0.625,0,0,0,0,0
1.104,-0.625,0,0,0,0,0
1.105,-0.9375,0,0,0,0,0
1.106,0.3125,0,0,0,0,0
1.107,0.3125,0,0,0,0,0
1.108,0.4375,0,0,0,0,0
1.109,0.625,0,0,0,0,0
1.11,0.8125,0,0,0,0,0
1.111,0.9375,0,0,0,0,0
1.112,0.8125,0,0,0,0,0
1.113,0.625,0,0,0,0,0
1.114,1.25,0,0,0,0,0
1.115,1.875,0,0,0,0,0
1.116,2.1875,0,0,0,0,0
1.117,1.875,0,0,0,0,0
1.118,1.5625,0,0,0,0,0
1.119,0.9375,0,0,0,0,0
1.12,0.75,0,0,0,0,0
1.121,0.9375,0,0,0,0,0
1.122,0.625,0,0,0,0,0
1.123,0.625,0,0,0,0,0
1.124,0.5,0,0,0,0,0
1.125,0.625,0,0,0,0,0
1.126,0.9375,0,0,0,0,0
1.127,0.9375,0,0,0,0,0
1.128,0.75,0,0,0,0,0
1.129,0.3125,0,0,0,0,0
1.13,0.8125,0,0,0,0,0
1.131,0.3125,0,0,0,0,0
1.132,0,0,0,0,0,0
1.133,0,0,0,0,0,0
1.134,0.625,0,0,0,0,0
1.135,0.9375,0,0,0,0,0
1.136,0.3125,0,0,0,0,0
1.137,0.3125,0,0,0,0,0
1.138,0.3125,0,0,0,0,0
1.139,0.3125,0,0,0,0,0
1.14,-0.125,0,0,0,0,0
1.141,0.3125,0,0,0,0,0
1.142,-0.3125,0,0,0,0,0
1.143,-0.625,0,0,0,0,0
1.144,-0.1875,0,0,0,0,0
1.145,-0.9375,0,0,0,0,0
1.146,-0.3125,0,0,0,0,0
1.147,0.625,0,0,0,0,0
1.148,0.5,0,0,0,0,0
1.149,0.625,0,0,0,0,0
1.15,0.1875,0,0,0,0,0
1.151,0.3125,0,0,0,0,0
1.152,0.5,0,0,0,0,0
1.153,0.625,0,0,0,0,0
1.154,0.1875,0,0,0,0,0
1.155,0,0,0,0,0,0
1.156,0.125,0,0,0,0,0
1.157,0,0,0,0,0,0
1.158,0.125,0,0,0,0,0
1.159,0.625,0,0,0,0,0
1.16,1.0625,0,0,0,0,0
1.161,0.9375,0,0,0,0,0
1.162,0,0,0,0,0,0
1.163,-0.3125,0,0,0,0,0
1.164,-0.5,0,0,0,0,0
1.165,-0.625,0,0,0,0,0
1.166,-0.3125,0,0,0,0,0
1.167,-0.3125,0,0,0,0,0
1.168,-0.625,0,0,0,0,0
1.169,-0.625,0,0,0,0,0
1.17,-0.125,0,0,0,0,0
1.171,-0.3125,0,0,0,0,0
1.172,-0.5,0,0,0,0,0
1.173,-0.3125,0,0,0,0,0
1.174,-0.1875,0,0,0,0,0
1.175,0,0,0,0,0,0
1.176,-0.75,0,0,0,0,0
1.177,-0.625,0,0,0,0,0
1.178,-0.3125,0,0,0,0,0
1.179,0,0,0,0,0,0
1.18,-0.1875,0,0,0,0,0
1.181,0.3125,0,0,0,0,0
1.182,-0.3125,0,0,0,0,0
1.183,-0.9375,0,0,0,0,0
1.184,-1.375,0,0,0,0,0
1.185,-1.25,0,0,0,0,0
1.186,-0.8125,0,0,0,0,0
1.187,-0.3125,0,0,0,0,0
1.188,0.3125,0,0,0,0,0
1.189,0.625,0,0,0,0,0
1.19,0.625,0,0,0,0,0
1.191,0.625,0,0,0,0,0
1.192,0.5,0,0,0,0,0
1.193,0.9375,0,0,0,0,0
1.194,1.25,0,0,0,0,0
1.195,1.25,0,0,0,0,0
1.196,0.8125,0,0,0,0,0
1.197,0.625,0,0,0,0,0
1.198,0.3125,0,0,0,0,0
1.199,0.625,0,0,0,0,0
1.2,1.6875,0,0,0,0,0
1.201,3.125,0,0,0,0,0
1.202,3.4375,0,0,0,0,0
1.203,3.75,0,0,0,0,0
1.204,3.125,0,0,0,0,0
1.205,2.5,0,0,0,0,0
1.206,2.5,0,0,0,0,0
1.207,1.875,0,0,0,0,0
1.208,1.4375,0,0,0,0,0
1.209,1.25,0,0,0,0,0
1.21,1.0625,0,0,0,0,0
1.211,1.25,0,0,0,0,0
1.212,1.25,0,0,0,0,0
1.213,0.9375,0,0,0,0,0
1.214,0.625,0,0,0,0,0
1.215,0,0,0,0,0,0
1.216,0,0,0,0,0,0
1.217,0,0,0,0,0,0
1.218,-0.3125,0,0,0,0,0
1.219,0,0,0,0,0,0
1.22,0.5,0,0,0,0,0
1.221,0,0,0,0,0,0
1.222,-0.1875,0,0,0,0,0
1.223,0,0,0,0,0,0
1.224,-0.3125,0,0,0,0,0
1.225,-0.3125,0,0,0,0,0
1.226,-0.125,0,0,0,0,0
1.227,0.3125,0,0,0,0,0
1.228,0.625,0,0,0,0,0
1.229,0.9375,0,0,0,0,0
1.23,0.9375,0,0,0,0,0
1.231,1.25,0,0,0,0,0
1.232,2.1875,0,0,0,0,0
1.233,2.8125,0,0,0,0,0
1.234,2.6875,0,0,0,0,0
1.235,2.8125,0,0,0,0,0
1.236,2.6875,0,0,0,0,0
1.237,2.5,0,0,0,0,0
1.238,2.5,0,0,0,0,0
1.239,2.8125,0,0,0,0,0
1.24,2.5,0,0,0,0,0
1.241,2.8125,0,0,0,0,0
1.242,2.9375,0,0,0,0,0
1.243,3.75,0,0,0,0,0
1.244,3.75,0,0,0,0,0
1.245,3.4375,0,0,0,0,0
1.246,3.625,0,0,0,0,0
1.247,3.4375,0,0,0,0,0
1.248,3.3125,0,0,0,0,0
1.249,3.75,0,0,0,0,0
1.25,3.75,0,0,0,0,0
1.251,3.75,0,0,0,0,0
1.252,4.1875,0,0,0,0,0
1.253,4.6875,0,0,0,0,0
1.254,5.75,0,0,0,0,0
1.255,5.9375,0,0,0,0,0
1.256,5.8125,0,0,0,0,0
1.257,5.3125,0,0,0,0,0
1.258,5.625,0,0,0,0,0
1.259,5.9375,0,0,0,0,0
1.26,5.4375,0,0,0,0,0
1.261,5.3125,0,0,0,0,0
1.262,5.3125,0,0,0,0,0
1.263,4.6875,0,0,0,0,0
1.264,5.125,0,0,0,0,0
1.265,5,0,0,0,0,0
1.266,4.875,0,0,0,0,0
1.267,4.6875,0,0,0,0,0
1.268,5.1875,0,0,0,0,0
1.269,5.625,0,0,0,0,0
1.27,5.4375,0,0,0,0,0
1.271,5.9375,0,0,0,0,0
1.272,6.25,0,0,0,0,0
1.273,6.875,0,0,0,0,0
1.274,7.1875,0,0,0,0,0
1.275,6.875,0,0,0,0,0
1.276,5.625,0,0,0,0,0
1.277,5.9375,0,0,0,0,0
1.278,6.375,0,0,0,0,0
1.279,6.25,0,0,0,0,0
1.28,6.25,0,0,0,0,0
1.281,6.5625,0,0,0,0,0
1.282,7,0,0,0,0,0
1.283,6.875,0,0,0,1,0
1.284,6.75,0,0,0,0,0
1.285,6.25,0,0,0,0,0
1.286,5.8125,0,0,0,0,0
1.287,5.9375,0,0,0,0,0
1.288,6.25,0,0,0,0,0
1.289,5.9375,0,0,0,0,0
1.29,6.0625,0,0,0,0,0
1.291,5.9375,0,0,0,0,0
1.292,5.9375,0,0,0,0,0
1.293,6.25,0,0,0,0,0
1.294,6.875,0,0,0,0,0
1.295,6.875,0,0,0,0,0
1.296,6.5625,0,0,0,0,0
1.297,6.5625,0,0,0,0,0
1.298,5.1875,0,0,0,0,0
1.299,3.75,0,0,0,0,0
1.3,3.3125,0,0,0,0,0
1.301,3.125,0,0,0,0,0
1.302,2.625,0,0,0,0,0
1.303,2.8125,0,0,0,0,0
1.304,3.4375,0,0,0,0,0
1.305,4.6875,0,0,0,0,0
1.306,5,0,0,0,0,0
1.307,4.6875,0,0,0,0,0
1.308,4.25,0,0,0,0,0
1.309,3.75,0,0,0,0,0
1.31,4.375,0,0,0,0,0
1.311,4.0625,0,0,0,0,0
1.312,4.1875,0,0,0,0,0
1.313,4.375,0,0,0,0,0
1.314,3.75,0,0,0,0,0
1.315,3.75,0,0,0,0,0
1.316,4.0625,0,0,0,0,0
1.317,4.6875,0,0,0,0,0
1.318,4.6875,0,0,0,0,0
1.319,4.6875,0,0,0,0,0
1.32,5.3125,0,0,0,0,0
1.321,6.25,0,0,0,0,0
1.322,5.9375,0,0,0,0,0
1.323,5.9375,0,0,0,0,0
1.324,5.8125,0,0,0,0,0
1.325,5.625,0,0,0,0,0
1.326,5.75,0,0,0,0,0
1.327,6.25,0,0,0,0,0
1.328,6.25,0,0,0,0,0
1.329,6.5625,0,0,0,0,0
1.33,6.6875,0,0,0,0,0
1.331,7.1875,0,0,0,0,0
1.332,6.75,0,0,0,0,0
1.333,5.9375,0,0,0,0,0
1.334,5.3125,0,0,0,0,0
1.335,4.375,0,0,0,0,0
1.336,3.9375,0,0,0,0,0
1.337,4.0625,0,0,0,0,0
1.338,3.625,0,0,0,0,0
1.339,3.4375,0,0,0,0,0
1.34,3.5625,0,0,0,0,0
1.341,4.375,0,0,0,0,0
1.342,3.4375,0,0,0,0,0
1.343,3.4375,0,0,0,0,0
1.344,4.375,0,0,0,0,0
1.345,4.375,0,0,0,0,0
1.346,4.375,0,0,0,0,0
1.347,4.6875,0,0,0,0,0
1.348,4.375,0,0,0,0,0
1.349,4.375,0,0,0,0,0
1.35,4.5,0,0,0,0,0
1.351,4.0625,0,0,0,0,0
1.352,3.9375,0,0,0,0,0
1.353,4.6875,0,0,0,0,0
1.354,5.125,0,0,0,0,0
1.355,5,0,0,0,0,0
1.356,4.375,0,0,0,0,0
1.357,4.0625,0,0,0,0,0
1.358,3.75,0,0,0,0,0
1.359,3.75,0,0,0,0,0
1.36,3.875,0,0,0,0,0
1.361,4.0625,0,0,0,0,0
1.362,5,0,0,0,0,0
1.363,5.3125,0,0,0,0,0
1.364,5.5,0,0,0,0,0
1.365,5.625,0,0,0,0,0
1.366,5.5,0,0,0,0,0
1.367,5,0,0,0,0,0
1.368,4.375,0,0,0,0,0
1.369,3.4375,0,0,0,0,0
1.37,3.75,0,0,0,0,0
1.371,3.75,0,0,0,0,0
1.372,3.4375,0,0,0,0,0
1.373,3.75,0,0,0,0,0
1.374,3.75,0,0,0,0,0
1.375,3.75,0,0,0,0,0
1.376,3.875,0,0,0,0,0
1.377,3.75,0,0,0,0,0
1.378,3.75,0,0,0,0,0
1.379,4.375,0,0,0,0,0
1.38,4.6875,0,0,0,0,0
1.381,5.3125,0,0,0,0,0
1.382,5.5,0,0,0,0,0
1.383,5,0,0,0,0,0
1.384,4.0625,0,0,0,0,0
1.385,3.4375,0,0,0,0,0
1.386,3.4375,0,0,0,0,0
1.387,3.75,0,0,0,0,0
1.388,4.0625,0,0,0,0,0
1.389,4.6875,0,0,0,0,0
1.39,4.6875,0,0,0,0,0
1.391,5,0,0,0,0,0
1.392,5.1875,0,0,0,0,0
1.393,5,0,0,0,0,0
1.394,4.375,0,0,0,0,0
1.395,4.6875,0,0,0,0,0
1.396,3.75,0,0,0,0,0
1.397,2.8125,0,0,0,0,0
1.398,2.6875,0,0,0,0,0
1.399,2.8125,0,0,0,0,0
1.4,3.125,0,0,0,0,0
1.401,3.125,0,0,0,0,0
1.402,2.6875,0,0,0,0,0
1.403,2.1875,0,0,0,0,0
1.404,2.1875,0,0,0,0,0
1.405,2.1875,0,0,0,0,0
1.406,1.5625,0,0,0,0,0
1.407,1.875,0,0,0,0,0
1.408,2.5,0,0,0,0,0
1.409,2.8125,0,0,0,0,0
1.41,2.375,0,0,0,0,0
1.411,2.1875,0,0,0,0,0
1.412,3.25,0,0,0,0,0
1.413,3.75,0,0,0,0,0
1.414,3.875,0,0,0,0,0
1.415,4.0625,0,0,0,0,0
1.416,4.0625,0,0,0,0,0
1.417,4.375,0,0,0,0,0
1.418,4.6875,0,0,0,0,0
1.419,3.75,0,0,0,0,0
1.42,3.4375,0,0,0,0,0
1.421,3.75,0,0,0,0,0
1.422,3.3125,0,0,0,0,0
1.423,3.125,0,0,0,0,0
1.424,3.125,0,0,0,0,0
1.425,3.125,0,0,0,0,0
1.426,3.4375,0,0,0,0,0
1.427,3.125,0,0,0,0,0
1.428,2.375,0,0,0,0,0
1.429,1.5625,0,0,0,0,0
1.43,2.5,0,0,0,0,0
1.431,2.8125,0,0,0,0,1
1.432,3,0,0,0,0,0
1.433,3.125,0,0,0,0,0
1.434,3.25,0,0,0,0,0
1.435,3.4375,0,0,0,0,0
1.436,4.0625,0,0,0,0,0
1.437,4.375,0,0,0,0,0
1.438,4.25,0,0,0,0,0
1.439,4.0625,0,0,0,0,0
1.44,4.1875,0,0,0,0,0
1.441,4.6875,0,0,0,0,0
1.442,4.5,0,0,0,0,0
1.443,4.6875,0,0,0,0,0
1.444,3.125,0,0,0,0,0
1.445,2.1875,0,0,0,0,0
1.446,1.875,0,0,0,0,0
1.447,2.1875,0,0,0,0,0
1.448,3.25,0,0,0,0,0
1.449,4.375,0,0,0,0,0
1.45,4.6875,0,0,0,0,0
1.451,4.375,0,0,0,0,0
1.452,3.3125,0,0,0,0,0
1.453,3.125,0,0,0,0,0
1.454,3,0,0,0,0,0
1.455,2.5,0,0,0,0,0
1.456,1.4375,0,0,0,0,0
1.457,0.3125,0,0,0,0,0
1.458,0.625,0,0,0,0,0
1.459,0.9375,0,0,0,0,0
1.46,2,0,0,0,0,0
1.461,2.1875,0,0,0,0,0
1.462,2.5,0,0,0,0,0
1.463,2.8125,0,0,0,0,0
1.464,2.8125,0,0,0,0,0
1.465,2.5,0,0,0,0,0
1.466,2.625,0,0,0,0,0
1.467,3.125,0,0,0,0,0
1.468,3.4375,0,0,0,0,0
1.469,3.75,0,0,0,0,0
1.47,3.3125,0,0,0,0,0
1.471,3.4375,0,0,0,0,0
1.472,2.375,0,0,0,0,0
1.473,1.25,0,0,0,0,0
1.474,1.75,0,0,0,0,0
1.475,1.25,0,0,0,0,0
1.476,1.125,0,0,0,0,0
1.477,1.5625,0,0,0,0,0
1.478,2.5,0,0,0,0,0
1.479,3.125,0,0,0,0,0
1.48,3.5625,0,0,0,0,0
1.481,3.75,0,0,0,0,0
1.482,3.5625,0,0,0,0,0
1.483,3.75,0,0,0,0,0
1.484,2.8125,0,0,0,0,0
1.485,2.8125,0,0,0,0,0
1.486,3.875,0,0,0,0,0
1.487,4.0625,0,0,0,0,0
1.488,3.625,0,0,0,0,0
1.489,3.75,0,0,0,0,0
1.49,3.75,0,0,0,0,0
1.491,3.4375,0,0,0,0,0
1.492,3.25,0,0,0,0,0
1.493,3.75,0,0,0,0,0
1.494,4.0625,0,0,0,0,0
1.495,4.0625,0,0,0,0,0
1.496,4.375,0,0,0,0,0
1.497,4.6875,0,0,0,0,0
1.498,4.375,0,0,0,0,0
1.499,4.0625,0,0,0,0,0
1.5,3.75,0,0,0,0,0
1.501,4.0625,0,0,0,0,0
1.502,4.0625,0,0,0,0,0
1.503,3.75,0,0,0,0,0
1.504,3.25,0,0,0,0,0
1.505,3.125,0,0,0,0,0
1.506,3.4375,0,0,0,0,0
1.507,3.4375,0,0,0,0,0
1.508,2.8125,0,0,0,0,0
1.509,3.125,0,0,0,0,0
1.51,3.125,0,0,0,0,0
1.511,3.125,0,0,0,0,0
1.512,3.25,0,0,0,0,0
1.513,3.4375,0,0,0,0,0
1.514,3.3125,0,0,0,0,0
1.515,3.125,0,0,0,0,0
1.516,2.8125,0,0,0,0,0
1.517,2.5,0,0,0,0,0
1.518,2.5,0,0,0,0,0
1.519,2.8125,0,0,0,0,0
1.52,4.0625,0,0,0,0,0
1.521,4.6875,0,0,0,0,0
1.522,4.25,0,0,0,0,0
1.523,3.75,0,0,0,0,0
1.524,3.125,0,0,0,0,0
1.525,2.1875,0,0,0,0,0
1.526,2.9375,0,0,0,0,0
1.527,3.4375,0,0,0,0,0
1.528,2.8125,0,0,0,0,0
1.529,2.1875,0,0,0,0,0
1.53,1.75,0,0,0,0,0
1.531,1.875,0,0,0,0,0
1.532,2.1875,0,0,0,0,0
1.533,2.1875,0,0,0,0,0
1.534,2.3125,0,0,0,0,0
1.535,2.1875,0,0,0,0,0
1.536,2.9375,0,0,0,0,0
1.537,3.4375,0,0,0,0,0
1.538,3.75,0,0,0,0,0
1.539,3.75,0,0,0,0,0
1.54,3.625,0,0,0,0,0
1.541,3.4375,0,0,0,0,0
1.542,3.625,0,0,0,0,0
1.543,3.4375,0,0,0,0,0
1.544,3.25,0,0,0,0,0
1.545,3.75,0,0,0,0,0
1.546,3.875,0,0,0,0,0
1.547,4.0625,0,0,0,0,0
1.548,3.875,0,0,0,0,0
1.549,4.375,0,0,0,0,0
1.55,4.0625,0,0,0,0,0
1.551,4.0625,0,0,0,0,0
1.552,4.25,0,0,0,0,0
1.553,3.75,0,0,0,0,0
1.554,4.1875,0,0,0,0,0
1.555,4.0625,0,0,0,0,0
1.556,4.0625,0,0,0,0,0
1.557,4.375,0,0,0,0,0
1.558,3.9375,0,0,0,0,0
1.559,4.0625,0,0,0,0,0
1.56,3.625,0,0,0,0,0
1.561,3.75,0,0,0,0,0
1.562,3.4375,0,0,0,0,0
1.563,3.4375,0,0,0,0,0
1.564,3,0,0,0,0,0
1.565,2.5,0,0,0,0,0
1.566,2.5,0,0,0,0,0
1.567,2.8125,0,0,0,0,0
1.568,3.5625,0,0,0,0,0
1.569,4.0625,0,0,0,0,0
1.57,4.6875,0,0,0,0,0
1.571,4.6875,0,0,0,0,0
1.572,4.25,0,0,0,0,0
1.573,4.375,0,0,0,0,0
1.574,4.25,0,0,0,0,0
1.575,3.4375,0,0,0,0,0
1.576,2.375,0,0,0,0,0
1.577,1.5625,0,0,0,0,0
1.578,2,0,0,0,0,0
1.579,2.1875,0,0,0,0,0
1.58,2.9375,0,0,0,0,0
1.581,3.4375,0,0,0,0,0
1.582,2.5,0,0,0,0,0
1.583,3.125,0,0,0,0,0
1.584,3.3125,0,0,0,0,0
1.585,2.8125,0,0,0,0,0
1.586,3.875,0,0,0,0,0
1.587,4.375,0,0,0,0,0
1.588,4.0625,0,0,0,0,0
1.589,4.0625,0,0,0,0,0
1.59,3.9375,0,0,0,0,0
1.591,3.125,0,0,0,0,0
1.592,3.5625,0,0,0,0,0
1.593,3.4375,0,0,0,0,0
1.594,3.75,0,0,0,0,0
1.595,4.375,0,0,0,0,0
1.596,3.75,0,0,0,0,0
1.597,3.4375,0,0,0,0,0
1.598,3.125,0,0,0,0,0
1.599,2.8125,0,0,0,0,0
1.6,1.75,0,0,0,0,0
1.601,2.1875,0,0,0,0,0
1.602,2.6875,0,0,0,0,0
1.603,2.5,0,0,0,0,0
1.604,2.8125,0,0,0,0,0
1.605,2.8125,0,0,0,0,0
1.606,3.4375,0,0,0,0,0
1.607,4.0625,0,0,0,0,0
1.608,4.0625,0,0,0,0,0
1.609,4.6875,0,0,0,0,0
1.61,4.6875,0,0,0,0,0
1.611,4.0625,0,0,0,0,0
1.612,3.5625,0,0,0,0,0
1.613,3.4375,0,0,0,0,0
1.614,3.4375,0,0,0,0,0
1.615,3.125,0,0,0,0,0
1.616,2.6875,0,0,0,0,0
1.617,1.5625,0,0,0,0,0
1.618,2.3125,0,0,0,0,0
1.619,2.5,0,0,0,0,0
1.62,2.1875,0,0,0,0,0
1.621,2.5,0,0,0,0,0
1.622,2.375,0,0,0,0,0
1.623,2.5,0,0,0,0,0
1.624,2.5,0,0,0,0,0
1.625,2.5,0,0,0,0,0
1.626,3.125,0,0,0,0,0
1.627,3.4375,0,0,0,0,0
1.628,3.25,0,0,0,0,0
1.629,3.125,0,0,0,0,0
1.63,3,0,0,0,0,0
1.631,2.5,0,0,0,0,0
1.632,2.5,0,0,0,0,0
1.633,2.1875,0,0,0,0,0
1.634,2.9375,0,0,0,0,0
1.635,3.125,0,0,0,0,0
1.636,2.5,0,0,0,0,0
1.637,2.5,0,0,0,0,0
1.638,2.8125,0,0,0,0,0
1.639,2.8125,0,0,0,0,0
1.64,2.8125,0,0,0,0,0
1.641,3.125,0,0,0,0,0
1.642,3.5625,0,0,0,0,0
1.643,3.75,0,0,0,0,0
1.644,3.75,0,0,0,0,0
1.645,4.375,0,0,0,0,0
1.646,5.125,0,0,0,0,0
1.647,5,0,0,0,0,0
1.648,4.6875,0,0,0,0,0
1.649,4.6875,0,0,0,0,0
1.65,3.9375,0,0,0,0,0
1.651,2.8125,0,0,0,0,0
1.652,2.625,0,0,0,0,0
1.653,3.125,0,0,0,0,0
1.654,3.75,0,0,0,0,0
1.655,3.75,0,0,0,0,0
1.656,3.9375,0,0,0,0,0
1.657,3.75,0,0,0,0,0
1.658,3.875,0,0,0,0,0
1.659,3.75,0,0,0,0,0
1.66,3.4375,0,0,0,0,0
1.661,3.4375,0,0,0,0,0
1.662,3.3125,0,0,0,0,0
1.663,3.125,0,0,0,0,0
1.664,2.6875,0,0,0,0,0
1.665,2.5,0,0,0,0,0
1.666,2.625,0,0,0,0,0
1.667,3.125,0,0,0,0,0
1.668,2.9375,0,0,0,0,0
1.669,2.5,0,0,0,0,0
1.67,3.125,0,0,0,0,0
1.671,3.4375,0,0,0,0,0
1.672,4.0625,0,0,0,0,0
1.673,3.4375,0,0,0,0,0
1.674,3.4375,0,0,0,0,0
1.675,3.4375,0,0,0,0,0
1.676,2.5,0,0,0,0,0
1.677,2.5,0,0,0,0,0
1.678,2.625,0,0,0,0,0
1.679,3.125,0,0,0,0,0
1.68,4.1875,0,0,0,0,0
1.681,5.3125,0,0,0,0,0
1.682,5,0,0,0,0,0
1.683,5.3125,0,0,0,0,0
1.684,5,0,0,0,0,0
1.685,4.375,0,0,0,0,0
1.686,4.375,0,0,0,0,0
1.687,4.6875,0,0,0,0,0
1.688,4.5625,0,0,0,0,0
1.689,4.375,0,0,0,0,0
1.69,3.9375,0,0,0,0,0
1.691,3.75,0,0,0,0,0
1.692,3.4375,0,0,0,0,0
1.693,3.4375,0,0,0,0,0
1.694,3.25,0,0,0,0,0
1.695,3.4375,0,0,0,0,0
1.696,2.6875,0,0,0,0,0
1.697,1.875,0,0,0,0,0
1.698,2.625,0,0,0,0,0
1.699,2.5,0,0,0,0,0
1.7,2.5,0,0,0,0,0
1.701,3.125,0,0,0,0,0
1.702,3.4375,0,0,0,0,0
1.703,3.4375,0,0,0,0,0
1.704,2.8125,0,0,0,0,0
1.705,2.5,0,0,0,0,0
1.706,2.625,0,0,0,0,0
1.707,2.8125,0,0,0,0,0
1.708,3.125,0,0,0,0,0
1.709,3.4375,0,0,0,0,0
1.71,3.75,0,0,0,0,0
1.711,3.75,0,0,0,0,0
1.712,3.875,0,0,0,0,0
1.713,4.0625,0,0,0,0,0
1.714,3.3125,0,0,0,0,0
1.715,3.125,0,0,0,0,0
1.716,3.3125,0,0,0,0,0
1.717,2.5,0,0,0,0,0
1.718,3.125,0,0,0,0,0
1.719,3.125,0,0,0,0,0
1.72,3.875,0,0,0,0,0
1.721,4.6875,0,0,0,0,0
1.722,4.6875,0,0,0,0,0
1.723,4.375,0,0,0,0,0
1.724,5,0,0,0,0,0
1.725,5.3125,0,0,0,0,0
1.726,5.125,0,0,0,0,0
1.727,4.6875,0,0,0,0,0
1.728,4.375,0,0,0,0,0
1.729,5,0,0,0,0,0
1.73,5.625,0,0,0,0,0
1.731,5.625,0,0,0,0,0
1.732,6.0625,0,0,0,0,0
1.733,6.875,0,0,0,0,0
1.734,6.4375,0,0,0,0,0
1.735,5.9375,0,0,0,0,0
1.736,4.875,0,0,0,0,0
1.737,4.0625,0,0,0,0,0
1.738,3.75,0,0,0,0,0
1.739,2.5,0,0,0,0,0
1.74,2.5,0,0,0,0,0
1.741,2.5,0,0,0,0,0
1.742,3.125,0,0,0,0,0
1.743,3.125,0,0,0,0,0
1.744,3.5625,0,0,0,0,0
1.745,3.75,0,0,0,0,0
1.746,4.375,0,0,0,0,0
1.747,5,0,0,0,0,0
1.748,5,0,0,0,0,0
1.749,5,0,0,0,0,0
1.75,5.5,0,0,0,0,0
1.751,5.3125,0,0,0,0,0
1.752,5.4375,0,0,0,0,0
1.753,5.625,0,0,0,0,0
1.754,5.9375,0,0,0,0,0
1.755,5.9375,0,0,0,0,0
1.756,5.9375,0,0,0,0,0
1.757,5.9375,0,0,0,0,0
1.758,6.25,0,0,0,0,0
1.759,6.25,0,0,0,0,0
1.76,6.25,0,0,0,0,0
1.761,6.875,0,0,0,0,0
1.762,6.5625,0,0,0,0,0
1.763,6.875,0,0,0,0,0
1.764,7.375,0,0,0,0,0
1.765,7.1875,0,0,0,0,0
1.766,6.875,0,0,0,0,0
1.767,6.875,0,0,0,0,0
1.768,6.4375,0,0,0,0,0
1.769,6.25,0,0,0,0,0
1.77,5.9375,0,0,0,0,0
1.771,5.9375,0,0,0,0,0
1.772,5.8125,0,0,0,0,0
1.773,5.625,0,0,0,0,0
1.774,5.1875,0,0,0,0,0
1.775,5.9375,0,0,0,0,0
1.776,6.25,0,0,0,0,0
1.777,6.25,0,0,0,0,0
1.778,5.625,0,0,0,0,0
1.779,5.625,0,0,0,0,0
1.78,5.5,0,0,0,0,0
1.781,5.625,0,0,0,0,0
1.782,5.9375,0,0,0,0,0
1.783,5.625,0,0,0,0,0
1.784,5.5,0,0,0,0,0
1.785,5.625,0,0,0,0,0
1.786,5.75,0,0,0,0,0
1.787,6.5625,0,0,0,0,0
1.788,7.3125,0,0,0,0,0
1.789,7.5,0,0,0,0,0
1.79,7.6875,0,0,0,0,0
1.791,7.1875,0,0,0,0,0
1.792,6.875,0,0,0,0,0
1.793,6.875,0,0,0,0,0
1.794,6.875,0,0,0,0,0
1.795,6.5625,0,0,0,0,0
1.796,7.1875,0,0,0,0,0
1.797,7.8125,0,0,0,0,0
1.798,7.9375,0,0,0,0,0
1.799,7.8125,0,0,0,0,0
1.8,7.9375,0,0,0,0,0
1.801,8.125,0,0,0,0,0
1.802,7.375,0,0,0,0,0
1.803,7.8125,0,0,0,0,0
1.804,8.25,0,0,0,0,0
1.805,8.4375,0,0,0,0,0
1.806,7.1875,0,0,0,0,0
1.807,6.5625,0,0,0,0,0
1.808,6.125,0,0,0,0,0
1.809,5.9375,0,0,0,0,0
1.81,6.5625,0,0,0,0,0
1.811,6.5625,0,0,0,0,0
1.812,6.25,0,0,0,0,0
1.813,5.9375,0,0,0,0,0
1.814,5.75,0,0,0,0,0
1.815,5.9375,0,0,0,0,0
1.816,5.3125,0,0,0,0,0
1.817,4.375,0,0,0,0,0
1.818,5,0,0,0,0,0
1.819,5.3125,0,0,0,0,0
1.82,5.4375,0,0,0,0,0
1.821,5.9375,0,0,0,0,0
1.822,5.625,0,0,0,0,0
1.823,5.3125,0,0,0,0,0
1.824,5,0,0,0,0,0
1.825,5.3125,0,0,0,0,0
1.826,5.3125,0,0,0,0,0
1.827,5.3125,0,0,0,0,0
1.828,5.125,0,0,0,0,0
1.829,5,0,0,0,0,0
1.83,3.9375,0,0,0,0,0
1.831,3.125,0,0,0,0,0
1.832,4.6875,0,0,0,0,0
1.833,6.25,0,0,0,0,0
1.834,6.25,0,0,0,0,0
1.835,6.25,0,0,0,0,0
1.836,4.875,0,0,0,0,0
1.837,4.375,0,0,0,0,0
1.838,3.75,0,0,0,0,0
1.839,3.125,0,0,0,0,0
1.84,2.0625,0,0,0,0,0
1.841,1.25,0,0,0,0,0
1.842,1.4375,0,0,0,0,0
1.843,1.25,0,0,0,0,0
1.844,1.25,0,0,0,0,0
1.845,1.25,0,0,0,0,0
1.846,1.125,0,0,0,0,0
1.847,1.25,0,0,0,0,0
1.848,0.625,0,0,0,0,0
1.849,0.9375,0,0,0,0,0
1.85,1.875,0,0,0,0,0
1.851,1.5625,0,0,0,0,0
1.852,1.375,0,0,0,0,0
1.853,1.5625,0,0,0,0,0
1.854,1.6875,0,0,0,0,0
1.855,2.1875,0,0,0,0,0
1.856,2.1875,0,0,0,0,0
1.857,2.1875,0,0,0,0,0
1.858,2.5,0,0,0,0,0
1.859,2.5,0,0,0,0,0
1.86,2.5,0,0,0,0,0
1.861,2.1875,0,0,0,0,0
1.862,2.8125,0,0,0,0,0
1.863,2.5,0,0,0,0,0
1.864,1.4375,0,0,0,0,0
1.865,1.25,0,0,0,0,0
1.866,2.5,0,0,0,0,0
1.867,4.0625,0,0,0,0,0
1.868,3.75,0,0,0,0,0
1.869,3.4375,0,0,0,0,0
1.87,3.625,0,0,0,0,0
1.871,3.4375,0,0,0,0,0
1.872,3.4375,0,0,0,0,0
1.873,3.4375,0,0,0,0,0
1.874,3.4375,0,0,0,0,0
1.875,2.8125,0,0,0,0,0
1.876,2.6875,0,0,0,0,0
1.877,2.5,0,0,0,0,0
1.878,2.8125,0,0,0,0,0
1.879,2.5,0,0,0,0,0
1.88,2.6875,0,0,0,0,0
1.881,2.5,0,0,0,0,0
1.882,2.6875,0,0,0,0,0
1.883,2.8125,0,0,0,0,0
1.884,2.5,0,0,0,0,0
1.885,2.5,0,0,0,0,0
1.886,2.1875,0,0,0,0,0
1.887,2.1875,0,0,0,0,0
1.888,2.5,0,0,0,0,0
1.889,3.4375,0,0,0,0,0
1.89,3,0,0,0,0,0
1.891,3.125,0,0,0,0,0
1.892,3.4375,0,0,0,0,0
1.893,3.125,0,0,0,0,0
1.894,2.6875,0,0,0,0,0
1.895,2.8125,0,0,0,0,0
1.896,2.625,0,0,0,0,0
1.897,2.8125,0,0,0,0,0
1.898,3.125,0,0,0,0,0
1.899,3.125,0,0,0,0,0
1.9,3.25,0,0,0,0,0
1.901,3.4375,0,0,0,0,0
1.902,3.75,0,0,0,0,0
1.903,4.0625,0,0,0,0,0
1.904,4.0625,0,0,0,0,0
1.905,4.0625,0,0,0,0,0
1.906,4.0625,0,0,0,0,0
1.907,4.0625,0,0,0,0,0
1.908,5,0,0,0,0,0
1.909,5,0,0,0,0,0
1.91,5.3125,0,0,0,0,0
1.911,6.875,0,0,0,0,0
1.912,7.1875,0,0,0,0,0
1.913,7.5,1,0,0,0,0
1.914,7.1875,0,0,0,0,0
1.915,7.5,0,0,0,0,0
1.916,7.1875,0,0,0,0,0
1.917,6.875,0,0,0,0,0
1.918,8.125,0,0,0,0,0
1.919,8.4375,0,0,0,0,0
1.92,10.313,0,0,0,0,0
1.921,11.875,0,0,0,0,0
1.922,12.188,0,0,0,0,0
1.923,12.813,0,0,0,0,0
1.924,13.625,0,0,0,0,0
1.925,14.375,0,0,0,0,0
1.926,14.375,0,0,0,0,0
1.927,14.688,0,0,0,0,0
1.928,14.375,0,0,0,0,0
1.929,14.375,0,0,0,0,0
1.93,15,0,0,0,0,0
1.931,15.938,0,0,0,0,0
1.932,17.938,0,0,0,0,0
1.933,20,0,0,0,0,0
1.934,22.188,0,0,0,0,0
1.935,25.313,0,0,0,0,0
1.936,27.313,0,0,0,0,0
1.937,30,0,0,0,0,0
1.938,32.063,0,0,0,0,0
1.939,35,0,0,0,0,0
1.94,38.438,0,0,0,0,0
1.941,41.875,0,0,0,0,0
1.942,44.563,0,0,0,0,0
1.943,48.125,0,0,0,0,0
1.944,51.25,0,0,0,0,0
1.945,53.75,0,0,0,0,0
1.946,56.25,0,0,0,0,0
1.947,58.75,0,0,0,0,0
1.948,62.5,0,0,0,0,0
1.949,65.313,0,0,0,0,0
1.95,66.75,0,0,0,0,0
1.951,67.813,0,0,0,0,0
1.952,68.125,0,0,0,0,0
1.953,68.125,0,0,0,0,0
1.954,69.188,0,0,0,0,0
1.955,70.313,0,1,0,0,0
1.956,70.75,0,0,0,0,0
1.957,71.25,0,1,0,0,0
1.958,70.938,0,0,0,0,0
1.959,69.688,0,0,0,0,0
1.96,68.875,0,0,0,0,0
1.961,67.813,0,0,0,0,0
1.962,66.438,0,0,0,0,0
1.963,65.625,0,0,0,0,0
1.964,64.25,0,0,0,0,0
1.965,62.813,0,0,0,0,0
1.966,60.938,0,0,0,0,0
1.967,57.813,0,0,0,0,0
1.968,52.813,0,0,0,0,0
1.969,47.813,0,0,0,0,0
1.97,42.625,0,0,0,0,0
1.971,37.5,0,0,0,0,0
1.972,33.313,0,0,0,0,0
1.973,29.063,0,0,0,0,0
1.974,25.938,0,0,0,0,0
1.975,23.75,0,0,0,0,0
1.976,22.313,0,0,0,0,0
1.977,21.563,0,0,0,0,0
1.978,21.375,0,0,0,0,0
1.979,20.625,0,0,0,0,0
1.98,17.188,0,0,0,0,0
1.981,14.375,0,0,0,0,0
1.982,10.938,0,0,0,0,0
1.983,7.1875,0,0,0,0,0
1.984,6.125,0,0,0,0,0
1.985,4.6875,0,0,1,0,0
1.986,3.5625,0,0,0,0,0
1.987,4.0625,0,0,0,0,0
1.988,4.5,0,0,0,0,0
1.989,5,0,0,0,0,0
1.99,5.125,0,0,0,0,0
1.991,4.6875,0,0,0,0,0
1.992,4.0625,0,0,0,0,0
1.993,2.8125,0,0,0,0,0
1.994,2.375,0,0,0,0,0
1.995,1.5625,0,0,0,0,0
1.996,0.4375,0,0,0,0,0
1.997,0.3125,0,0,0,0,0
1.998,0.125,0,0,0,0,0
1.999,-0.3125,0,0,0,0,0
2,0.4375,0,0,0,0,0
2.001,0.9375,0,0,0,0,0
2.002,0.8125,0,0,0,0,0
2.003,0.9375,0,0,0,0,0
2.004,0.5,0,0,0,0,0
2.005,0.625,0,0,0,0,0
2.006,0.75,0,0,0,0,0
2.007,0.9375,0,0,0,0,0
2.008,0.9375,0,0,0,0,0
2.009,1.5625,0,0,0,0,0
2.01,1.75,0,0,0,0,0
2.011,1.25,0,0,0,0,0
2.012,2.3125,0,0,0,0,0
2.013,2.5,0,0,0,0,0
2.014,2.3125,0,0,0,0,0
2.015,2.1875,0,0,0,0,0
2.016,1.875,0,0,0,0,0
2.017,2.1875,0,0,0,0,0
2.018,2.8125,0,0,0,0,0
2.019,3.125,0,0,0,0,0
2.02,3.4375,0,0,0,0,0
2.021,4.375,0,0,0,0,0
2.022,5.4375,0,0,0,0,0
2.023,5.9375,0,0,0,0,0
2.024,4.6875,0,0,0,0,0
2.025,2.5,0,0,0,0,0
2.026,1.875,0,0,0,0,0
2.027,2.5,0,0,0,0,0
2.028,2.375,0,0,0,0,0
2.029,1.875,0,0,0,0,0
2.03,-0.125,0,0,0,0,0
2.031,-2.1875,0,0,0,0,0
2.032,-2.1875,0,0,0,0,0
2.033,-1.875,0,0,0,0,0
2.034,-1.5625,0,0,0,0,0
2.035,-1.25,0,0,0,0,0
2.036,-1.0625,0,0,0,0,0
2.037,-1.25,0,0,0,0,0
2.038,-1.4375,0,0,0,0,0
2.039,-1.5625,0,0,0,0,0
2.04,-1.4375,0,0,0,0,0
2.041,-1.25,0,0,0,0,0
2.042,-0.8125,0,0,0,0,0
2.043,-1.25,0,0,0,0,0
2.044,-1.125,0,0,0,0,0
2.045,-0.9375,0,0,0,0,0
2.046,-0.9375,0,0,0,0,0
2.047,-0.625,0,0,0,0,0
2.048,-0.8125,0,0,0,0,0
2.049,-0.9375,0,0,0,0,0
2.05,-0.625,0,0,0,0,0
2.051,-0.3125,0,0,0,0,0
2.052,-0.1875,0,0,0,0,0
2.053,0,0,0,0,0,0
2.054,0.3125,0,0,0,0,0
2.055,0.625,0,0,0,0,0
2.056,0.5,0,0,0,0,0
2.057,0.3125,0,0,0,0,0
2.058,0.3125,0,0,0,0,0
2.059,0.3125,0,0,0,0,0
2.06,0.5,0,0,0,0,0
2.061,0.3125,0,0,0,0,0
2.062,0,0,0,0,0,0
2.063,0.3125,0,0,0,0,0
2.064,0.125,0,0,0,0,0
2.065,0,0,0,0,0,0
2.066,0.625,0,0,0,0,0
2.067,1.5625,0,0,0,0,0
2.068,0.9375,0,0,0,0,0
2.069,0.9375,0,0,0,0,0
2.07,1.0625,0,0,0,0,0
2.071,0.9375,0,0,0,0,0
2.072,0.9375,0,0,0,0,0
2.073,1.25,0,0,0,0,0
2.074,1.375,0,0,0,0,0
2.075,2.1875,0,0,0,0,0
2.076,3.125,0,0,0,0,0
2.077,2.8125,0,0,0,0,0
2.078,4.1875,0,0,0,0,0
2.079,5.3125,0,0,0,0,0
2.08,4.8125,0,0,0,0,0
2.081,4.375,0,0,0,0,0
2.082,2.0625,0,0,0,0,0
2.083,-0.625,0,0,0,0,0
2.084,-2.5,0,0,0,0,0
2.085,-3.75,0,0,0,0,0
2.086,-3.3125,0,0,0,0,0
2.087,-3.4375,0,0,0,0,0
2.088,-3,0,0,0,0,0
2.089,-2.8125,0,0,0,0,0
2.09,-2.8125,0,0,0,0,0
2.091,-2.5,0,0,0,0,0
2.092,-2.375,0,0,0,0,0
2.093,-1.875,0,0,0,0,0
2.094,-0.625,0,0,0,0,0
2.095,0,0,0,0,0,0
2.096,0,0,0,0,0,0
2.097,0.3125,0,0,0,0,0
2.098,0.625,0,0,0,0,0
2.099,0.625,0,0,0,0,0
2.1,-0.3125,0,0,0,0,0
2.101,-0.3125,0,0,0,0,0
2.102,-0.3125,0,0,0,0,0
2.103,-0.9375,0,0,0,0,0
2.104,-1.125,0,0,0,0,0
2.105,-0.9375,0,0,0,0,0
2.106,-0.1875,0,0,0,0,0
2.107,0.9375,0,0,0,0,0
2.108,0.9375,0,0,0,0,0
2.109,0.9375,0,0,0,0,0
2.11,1.0625,0,0,0,0,0
2.111,0.9375,0,0,0,0,0
2.112,1.375,0,0,0,0,0
2.113,1.25,0,0,0,0,0
2.114,2.3125,0,0,0,0,0
2.115,1.5625,0,0,0,0,0
2.116,0.8125,0,0,0,0,0
2.117,0.9375,0,0,0,0,0
2.118,0.5,0,0,0,0,0
2.119,0.3125,0,0,0,0,0
2.12,0.9375,0,0,0,0,0
2.121,0.625,0,0,0,0,0
2.122,0.4375,0,0,0,0,0
2.123,0.3125,0,0,0,0,0
2.124,0.5,0,0,0,0,0
2.125,0.3125,0,0,0,0,0
2.126,0,0,0,0,0,0
2.127,0.3125,0,0,0,0,0
2.128,0.1875,0,0,0,0,0
2.129,0.625,0,0,0,0,0
2.13,0.3125,0,0,0,0,0
2.131,0,0,0,0,0,0
2.132,-0.3125,0,0,0,0,0
2.133,-0.9375,0,0,0,0,0
2.134,-2,0,0,0,0,0
2.135,-2.5,0,0,0,0,0
2.136,-2.1875,0,0,0,0,0
2.137,-2.1875,0,0,0,0,0
2.138,-1.875,0,0,0,0,0
2.139,-1.875,0,0,0,0,0
2.14,-2.0625,0,0,0,0,0
2.141,-1.875,0,0,0,0,0
2.142,-1.75,0,0,0,0,0
2.143,-1.5625,0,0,0,0,0
2.144,-2.1875,0,0,0,0,0
2.145,-1.875,0,0,0,0,0
2.146,-2.0625,0,0,0,0,0
2.147,-0.625,0,0,0,0,0
2.148,-0.3125,0,0,0,0,0
2.149,-0.625,0,0,0,0,0
2.15,-0.5,0,0,0,0,0
2.151,-0.9375,0,0,0,0,0
2.152,-0.125,0,0,0,0,0
2.153,-0.625,0,0,0,0,0
2.154,-0.1875,0,0,0,0,0
2.155,-0.625,0,0,0,0,0
2.156,-0.75,0,0,0,0,0
2.157,-0.3125,0,0,0,0,0
2.158,-0.3125,0,0,0,0,0
2.159,-0.625,0,0,0,0,0
2.16,-0.1875,0,0,0,0,0
2.161,0.3125,0,0,0,0,0
2.162,0.4375,0,0,0,0,0
2.163,0.3125,0,0,0,0,0
2.164,0.625,0,0,0,0,0
2.165,0.625,0,0,0,0,0
2.166,0.625,0,0,0,0,0
2.167,1.5625,0,0,0,0,0
2.168,1.4375,0,0,0,0,0
2.169,0.9375,0,0,0,0,0
2.17,1.5625,0,0,0,0,0
2.171,0.9375,0,0,0,0,0
2.172,1.5625,0,0,0,0,0
2.173,2.1875,0,0,0,0,0
2.174,2.1875,0,0,0,0,0
2.175,2.1875,0,0,0,0,0
2.176,0.5,0,0,0,0,0
2.177,-1.25,0,0,0,0,0
2.178,-1.875,0,0,0,0,0
2.179,-2.5,0,0,0,0,0
2.18,-2.0625,0,0,0,0,0
2.181,-2.1875,0,0,0,0,0
2.182,-1.875,0,0,0,0,0
2.183,-1.875,0,0,0,0,0
2.184,-2.5,0,0,0,0,0
2.185,-2.8125,0,0,0,0,0
2.186,-3,0,0,0,0,0
2.187,-2.8125,0,0,0,0,0
2.188,-2.0625,0,0,0,0,0
2.189,-0.9375,0,0,0,0,0
2.19,0,0,0,0,0,0
2.191,0.625,0,0,0,0,0
2.192,0.4375,0,0,0,0,0
2.193,0,0,0,0,0,0
2.194,0.3125,0,0,0,0,0
2.195,-0.3125,0,0,0,0,0
2.196,-0.4375,0,0,0,0,0
2.197,-0.3125,0,0,0,0,0
2.198,0.125,0,0,0,0,0
2.199,0.3125,0,0,0,0,0
2.2,-0.1875,0,0,0,0,0
2.201,0,0,0,0,0,0
2.202,0,0,0,0,0,0
2.203,0,0,0,0,0,0
2.204,-0.4375,0,0,0,0,0
2.205,0,0,0,0,0,0
2.206,-0.1875,0,0,0,0,0
2.207,0,0,0,0,0,0
2.208,0.1875,0,0,0,0,0
2.209,-0.9375,0,0,0,0,0
2.21,-1.6875,0,0,0,0,0
2.211,-2.1875,0,0,0,0,0
2.212,-1.875,0,0,0,0,0
2.213,-1.25,0,0,0,0,0
2.214,-1.4375,0,0,0,0,0
2.215,-0.9375,0,0,0,0,0
2.216,-0.75,0,0,0,0,0
2.217,-0.625,0,0,0,0,0
2.218,-0.1875,0,0,0,0,0
2.219,0.625,0,0,0,0,0
2.22,1.25,0,0,0,0,0
2.221,1.5625,0,0,0,0,0
2.222,1.25,0,0,0,0,0
2.223,1.25,0,0,0,0,0
2.224,0.9375,0,0,0,0,0
2.225,0,0,0,0,0,0
2.226,-0.5,0,0,0,0,0
2.227,-0.3125,0,0,0,0,0
2.228,-1.6875,0,0,0,0,0
2.229,-3.125,0,0,0,0,0
2.23,-3.5625,0,0,0,0,0
2.231,-4.375,0,0,0,0,0
2.232,-3,0,0,0,0,0
2.233,-1.25,0,0,0,0,0
2.234,-0.1875,0,0,0,0,0
2.235,0.3125,0,0,0,0,0
2.236,-0.75,0,0,0,0,0
2.237,-1.5625,0,0,0,0,0
2.238,-1.25,0,0,0,0,0
2.239,-0.9375,0,0,0,0,0
2.24,-0.8125,0,0,0,0,0
2.241,0.3125,0,0,0,0,0
2.242,0.3125,0,0,0,0,0
2.243,0.3125,0,0,0,0,0
2.244,-0.125,0,0,0,0,0
2.245,0,0,0,0,0,0
2.246,-0.3125,0,0,0,0,0
2.247,-0.625,0,0,0,0,0
2.248,-0.9375,0,0,0,0,0
2.249,-0.625,0,0,0,0,0
2.25,-0.9375,0,0,0,0,0
2.251,-1.25,0,0,0,0,0
2.252,-1.0625,0,0,0,0,0
2.253,-1.25,0,0,0,0,0
2.254,-1.25,0,0,0,0,0
2.255,-1.25,0,0,0,0,0
2.256,-2,0,0,0,0,0
2.257,-2.1875,0,0,0,0,0
2.258,-1.875,0,0,0,0,0
2.259,-1.875,0,0,0,0,0
2.26,-2.0625,0,0,0,0,0
2.261,-1.875,0,0,0,0,0
2.262,-2.1875,0,0,0,0,0
2.263,-1.875,0,0,0,0,0
2.264,-2,0,0,0,0,0
2.265,-1.875,0,0,0,0,0
2.266,-1.25,0,0,0,0,0
2.267,-0.625,0,0,0,0,0
2.268,-0.625,0,0,0,0,0
2.269,-0.625,0,0,0,0,0
2.27,-0.1875,0,0,0,0,0
2.271,-0.3125,0,0,0,0,0
2.272,0.125,0,0,0,0,0
2.273,0.9375,0,0,0,0,0
2.274,0.625,0,0,0,0,0
2.275,0.625,0,0,0,0,0
2.276,0.9375,0,0,0,0,0
2.277,0.9375,0,0,0,0,0
2.278,0.75,0,0,0,0,0
2.279,0.3125,0,0,0,0,0
2.28,0.4375,0,0,0,0,0
2.281,0.625,0,0,0,0,0
2.282,-0.125,0,0,0,0,0
2.283,-0.3125,0,0,0,0,0
2.284,-0.3125,0,0,0,0,0
2.285,-1.25,0,0,0,0,0
2.286,-1.4375,0,0,0,0,0
2.287,-1.25,0,0,0,0,0
2.288,-1.5625,0,0,0,0,0
2.289,-1.5625,0,0,0,0,0
2.29,-1.25,0,0,0,0,0
2.291,-0.625,0,0,0,0,0
2.292,-0.1875,0,0,0,0,0
2.293,0.3125,0,0,0,0,0
2.294,0.75,0,0,0,0,0
2.295,1.5625,0,0,0,0,0
2.296,1.75,0,0,0,0,0
2.297,1.5625,0,0,0,0,0
2.298,1.6875,0,0,0,0,0
2.299,2.1875,0,0,0,0,0
2.3,2.5,0,0,0,0,0
2.301,2.8125,0,0,0,0,0
2.302,2.375,0,0,0,0,0
2.303,2.1875,0,0,0,0,0
2.304,1.75,0,0,0,0,0
2.305,1.875,0,0,0,0,0
2.306,3.125,0,0,0,0,0
2.307,5,0,0,0,0,0
2.308,4.875,0,0,0,0,0
2.309,4.375,0,0,0,0,0
2.31,4.25,0,0,0,0,0
2.311,3.75,0,0,0,0,0
2.312,3.875,0,0,0,0,0
2.313,4.6875,0,0,0,0,0
2.314,4.8125,0,0,0,0,0
2.315,5,0,0,0,0,0
2.316,4.6875,0,0,0,0,0
2.317,4.375,0,0,0,0,0
2.318,5,0,0,0,0,0
2.319,4.6875,0,0,0,0,0
2.32,4.875,0,0,0,0,0
2.321,4.6875,0,0,0,0,0
2.322,4.5625,0,0,0,0,0
2.323,4.375,0,0,0,0,0
2.324,3.875,0,0,0,0,0
2.325,3.75,0,0,0,0,0
2.326,4.1875,0,0,0,0,0
2.327,4.0625,0,0,0,0,0
2.328,4.375,0,0,0,0,0
2.329,4.0625,0,0,0,0,0
2.33,4.1875,0,0,0,0,0
2.331,4.375,0,0,0,0,0
2.332,5.125,0,0,0,0,0
2.333,5.9375,0,0,0,1,0
2.334,5.5,0,0,0,0,0
2.335,5.625,0,0,0,0,0
2.336,5.5,0,0,0,0,0
2.337,5.625,0,0,0,0,0
2.338,7.1875,0,0,0,0,0
2.339,8.125,0,0,0,0,0
2.34,7.1875,0,0,0,0,0
2.341,7.8125,0,0,0,0,0
2.342,7.1875,0,0,0,0,0
2.343,5.9375,0,0,0,0,0
2.344,5.3125,0,0,0,0,0
2.345,5,0,0,0,0,0
2.346,5.625,0,0,0,0,0
2.347,5.625,0,0,0,0,0
2.348,6.6875,0,0,0,0,0
2.349,7.5,0,0,0,0,0
2.35,7.0625,0,0,0,0,0
2.351,7.1875,0,0,0,0,0
2.352,7.5,0,0,0,0,0
2.353,7.1875,0,0,0,0,0
2.354,6.4375,0,0,0,0,0
2.355,5.3125,0,0,0,0,0
2.356,4.375,0,0,0,0,0
2.357,3.75,0,0,0,0,0
2.358,4.1875,0,0,0,0,0
2.359,4.0625,0,0,0,0,0
2.36,4.5,0,0,0,0,0
2.361,5.3125,0,0,0,0,0
2.362,5.4375,0,0,0,0,0
2.363,5.625,0,0,0,0,0
2.364,5.3125,0,0,0,0,0
2.365,5.3125,0,0,0,0,0
2.366,5.3125,0,0,0,0,0
2.367,5.9375,0,0,0,0,0
2.368,5.9375,0,0,0,0,0
2.369,6.5625,0,0,0,0,0
2.37,7,0,0,0,0,0
2.371,6.875,0,0,0,0,0
2.372,5.5,0,0,0,0,0
2.373,4.0625,0,0,0,0,0
2.374,4.25,0,0,0,0,0
2.375,3.4375,0,0,0,0,0
2.376,3.4375,0,0,0,0,0
2.377,3.4375,0,0,0,0,0
2.378,2.9375,0,0,0,0,0
2.379,3.125,0,0,0,0,0
2.38,3.5625,0,0,0,0,0
2.381,4.375,0,0,0,0,0
2.382,5.125,0,0,0,0,0
2.383,5.9375,0,0,0,0,0
2.384,5.75,0,0,0,0,0
2.385,5.9375,0,0,0,0,0
2.386,6.0625,0,0,0,0,0
2.387,6.5625,0,0,0,0,0
2.388,6.25,0,0,0,0,0
2.389,5.9375,0,0,0,0,0
2.39,4.875,0,0,0,0,0
2.391,4.0625,0,0,0,0,0
2.392,3.9375,0,0,0,0,0
2.393,4.0625,0,0,0,0,0
2.394,3.75,0,0,0,0,0
2.395,3.75,0,0,0,0,0
2.396,4.0625,0,0,0,0,0
2.397,4.0625,0,0,0,0,0
2.398,4.0625,0,0,0,0,0
2.399,3.75,0,0,0,0,0
2.4,3.875,0,0,0,0,0
2.401,4.6875,0,0,0,0,0
2.402,4.375,0,0,0,0,0
2.403,4.375,0,0,0,0,0
2.404,4.8125,0,0,0,0,0
2.405,5.9375,0,0,0,0,0
2.406,5,0,0,0,0,0
2.407,5,0,0,0,0,0
2.408,5.5,0,0,0,0,0
2.409,5,0,0,0,0,0
2.41,4.5625,0,0,0,0,0
2.411,4.375,0,0,0,0,0
2.412,3.9375,0,0,0,0,0
2.413,3.75,0,0,0,0,0
2.414,4.5,0,0,0,0,0
2.415,4.6875,0,0,0,0,0
2.416,4.375,0,0,0,0,0
2.417,5,0,0,0,0,0
2.418,4.875,0,0,0,0,0
2.419,4.0625,0,0,0,0,0
2.42,3.75,0,0,0,0,0
2.421,3.75,0,0,0,0,0
2.422,3.4375,0,0,0,0,0
2.423,3.4375,0,0,0,0,0
2.424,3.3125,0,0,0,0,0
2.425,3.125,0,0,0,0,0
2.426,3.3125,0,0,0,0,0
2.427,2.8125,0,0,0,0,0
2.428,2.8125,0,0,0,0,0
2.429,2.8125,0,0,0,0,0
2.43,3.125,0,0,0,0,0
2.431,3.125,0,0,0,0,0
2.432,3.5625,0,0,0,0,0
2.433,3.75,0,0,0,0,0
2.434,4.0625,0,0,0,0,0
2.435,4.0625,0,0,0,0,0
2.436,3.625,0,0,0,0,0
2.437,3.75,0,0,0,0,0
2.438,3.625,0,0,0,0,0
2.439,3.4375,0,0,0,0,0
2.44,3.875,0,0,0,0,0
2.441,4.0625,0,0,0,0,0
2.442,4.0625,0,0,0,0,0
2.443,4.6875,0,0,0,0,0
2.444,4.0625,0,0,0,0,0
2.445,3.75,0,0,0,0,0
2.446,4.6875,0,0,0,0,0
2.447,5,0,0,0,0,0
2.448,5.125,0,0,0,0,0
2.449,5.625,0,0,0,0,0
2.45,5.1875,0,0,0,0,0
2.451,5,0,0,0,0,0
2.452,4.8125,0,0,0,0,0
2.453,5,0,0,0,0,0
2.454,5.625,0,0,0,0,0
2.455,6.5625,0,0,0,0,0
2.456,6.875,0,0,0,0,0
2.457,6.875,0,0,0,0,0
2.458,5.3125,0,0,0,0,0
2.459,4.6875,0,0,0,0,0
2.46,3.625,0,0,0,0,0
2.461,2.5,0,0,0,0,0
2.462,2.1875,0,0,0,0,0
2.463,2.1875,0,0,0,0,0
2.464,1.4375,0,0,0,0,0
2.465,0.3125,0,0,0,0,0
2.466,0.1875,0,0,0,0,0
2.467,0,0,0,0,0,0
2.468,0.75,0,0,0,0,0
2.469,1.5625,0,0,0,0,0
2.47,1.375,0,0,0,0,0
2.471,2.1875,0,0,0,0,0
2.472,2.5,0,0,0,0,0
2.473,2.5,0,0,0,0,0
2.474,2.3125,0,0,0,0,0
2.475,2.5,0,0,0,0,0
2.476,3,0,0,0,0,0
2.477,2.8125,0,0,0,0,0
2.478,2.0625,0,0,0,0,0
2.479,1.25,0,0,0,0,0
2.48,1.25,0,0,0,0,0
2.481,1.5625,0,0,0,0,1
2.482,2.625,0,0,0,0,0
2.483,2.5,0,0,0,0,0
2.484,1.875,0,0,0,0,0
2.485,1.875,0,0,0,0,0
2.486,1.875,0,0,0,0,0
2.487,2.1875,0,0,0,0,0
2.488,2.5,0,0,0,0,0
2.489,2.8125,0,0,0,0,0
2.49,2.9375,0,0,0,0,0
2.491,2.5,0,0,0,0,0
2.492,2.1875,0,0,0,0,0
2.493,1.875,0,0,0,0,0
2.494,2.8125,0,0,0,0,0
2.495,3.125,0,0,0,0,0
2.496,3.3125,0,0,0,0,0
2.497,3.4375,0,0,0,0,0
2.498,3.75,0,0,0,0,0
2.499,4.0625,0,0,0,0,0
2.5,4.375,0,0,0,0,0
2.501,4.375,0,0,0,0,0
2.502,4.25,0,0,0,0,0
2.503,4.0625,0,0,0,0,0
2.504,3.75,0,0,0,0,0
2.505,3.75,0,0,0,0,0
2.506,3.3125,0,0,0,0,0
2.507,3.125,0,0,0,0,0
2.508,1.875,0,0,0,0,0
2.509,1.25,0,0,0,0,0
2.51,1.0625,0,0,0,0,0
2.511,1.5625,0,0,0,0,0
2.512,2.5,0,0,0,0,0
2.513,3.4375,0,0,0,0,0
2.514,3.75,0,0,0,0,0
2.515,3.4375,0,0,0,0,0
2.516,1.4375,0,0,0,0,0
2.517,0.3125,0,0,0,0,0
2.518,1.0625,0,0,0,0,0
2.519,1.5625,0,0,0,0,0
2.52,1.6875,0,0,0,0,0
2.521,1.875,0,0,0,0,0
2.522,1.5625,0,0,0,0,0
2.523,1.25,0,0,0,0,0
2.524,2.0625,0,0,0,0,0
2.525,1.875,0,0,0,0,0
2.526,2,0,0,0,0,0
2.527,2.1875,0,0,0,0,0
2.528,2.625,0,0,0,0,0
2.529,2.8125,0,0,0,0,0
2.53,2.5,0,0,0,0,0
2.531,2.5,0,0,0,0,0
2.532,2.3125,0,0,0,0,0
2.533,2.1875,0,0,0,0,0
2.534,2.0625,0,0,0,0,0
2.535,2.5,0,0,0,0,0
2.536,2.1875,0,0,0,0,0
2.537,1.875,0,0,0,0,0
2.538,2.5,0,0,0,0,0
2.539,2.1875,0,0,0,0,0
2.54,2.3125,0,0,0,0,0
2.541,3.125,0,0,0,0,0
2.542,3.4375,0,0,0,0,0
2.543,3.4375,0,0,0,0,0
2.544,3.4375,0,0,0,0,0
2.545,3.125,0,0,0,0,0
2.546,3.25,0,0,0,0,0
2.547,3.75,0,0,0,0,0
2.548,4.375,0,0,0,0,0
2.549,5.9375,0,0,0,0,0
2.55,6.5625,0,0,0,0,0
2.551,6.25,0,0,0,0,0
2.552,5.8125,0,0,0,0,0
2.553,5.9375,0,0,0,0,0
2.554,6.25,0,0,0,0,0
2.555,6.25,0,0,0,0,0
2.556,5,0,0,0,0,0
2.557,4.375,0,0,0,0,0
2.558,2.8125,0,0,0,0,0
2.559,0.9375,0,0,0,0,0
2.56,0.625,0,0,0,0,0
2.561,0.3125,0,0,0,0,0
2.562,0.1875,0,0,0,0,0
2.563,0,0,0,0,0,0
2.564,0,0,0,0,0,0
2.565,0.625,0,0,0,0,0
2.566,1.375,0,0,0,0,0
2.567,1.875,0,0,0,0,0
2.568,0.9375,0,0,0,0,0
2.569,0.3125,0,0,0,0,0
2.57,0.5,0,0,0,0,0
2.571,0.3125,0,0,0,0,0
2.572,0.3125,0,0,0,0,0
2.573,1.25,0,0,0,0,0
2.574,1.375,0,0,0,0,0
2.575,1.5625,0,0,0,0,0
2.576,1.875,0,0,0,0,0
2.577,2.1875,0,0,0,0,0
2.578,2.1875,0,0,0,0,0
2.579,2.1875,0,0,0,0,0
2.58,2.5,0,0,0,0,0
2.581,2.8125,0,0,0,0,0
2.582,2.5,0,0,0,0,0
2.583,2.5,0,0,0,0,0
2.584,2.9375,0,0,0,0,0
2.585,2.8125,0,0,0,0,0
2.586,2.8125,0,0,0,0,0
2.587,2.8125,0,0,0,0,0
2.588,3.25,0,0,0,0,0
2.589,3.4375,0,0,0,0,0
2.59,3.125,0,0,0,0,0
2.591,2.5,0,0,0,0,0
2.592,2.8125,0,0,0,0,0
2.593,3.125,0,0,0,0,0
2.594,3.4375,0,0,0,0,0
2.595,4.375,0,0,0,0,0
2.596,4.375,0,0,0,0,0
2.597,4.0625,0,0,0,0,0
2.598,4.375,0,0,0,0,0
2.599,4.375,0,0,0,0,0
2.6,4.6875,0,0,0,0,0
2.601,4.6875,0,0,0,0,0
2.602,4.8125,0,0,0,0,0
2.603,4.6875,0,0,0,0,0
2.604,4.25,0,0,0,0,0
2.605,3.75,0,0,0,0,0
2.606,4.375,0,0,0,0,0
2.607,4.6875,0,0,0,0,0
2.608,4.25,0,0,0,0,0
2.609,4.375,0,0,0,0,0
2.61,2.375,0,0,0,0,0
2.611,0.3125,0,0,0,0,0
2.612,0.3125,0,0,0,0,0
2.613,0.9375,0,0,0,0,0
2.614,0.8125,0,0,0,0,0
2.615,0.9375,0,0,0,0,0
2.616,1.25,0,0,0,0,0
2.617,0.9375,0,0,0,0,0
2.618,1.6875,0,0,0,0,0
2.619,1.875,0,0,0,0,0
2.62,1.875,0,0,0,0,0
2.621,2.1875,0,0,0,0,0
2.622,1.75,0,0,0,0,0
2.623,1.875,0,0,0,0,0
2.624,1.4375,0,0,0,0,0
2.625,1.5625,0,0,0,0,0
2.626,2,0,0,0,0,0
2.627,2.8125,0,0,0,0,0
2.628,2.8125,0,0,0,0,0
2.629,2.8125,0,0,0,0,0
2.63,2.375,0,0,0,0,0
2.631,2.1875,0,0,0,0,0
2.632,2.375,0,0,0,0,0
2.633,2.1875,0,0,0,0,0
2.634,2.625,0,0,0,0,0
2.635,2.5,0,0,0,0,0
2.636,2.0625,0,0,0,0,0
2.637,2.1875,0,0,0,0,0
2.638,2.625,0,0,0,0,0
2.639,2.5,0,0,0,0,0
2.64,2.8125,0,0,0,0,0
2.641,3.4375,0,0,0,0,0
2.642,3.75,0,0,0,0,0
2.643,3.75,0,0,0,0,0
2.644,3.875,0,0,0,0,0
2.645,3.75,0,0,0,0,0
2.646,2.5,0,0,0,0,0
2.647,2.8125,0,0,0,0,0
2.648,3.125,0,0,0,0,0
2.649,2.8125,0,0,0,0,0
2.65,3.125,0,0,0,0,0
2.651,2.8125,0,0,0,0,0
2.652,2.8125,0,0,0,0,0
2.653,2.5,0,0,0,0,0
2.654,2.5,0,0,0,0,0
2.655,2.8125,0,0,0,0,0
2.656,2.5,0,0,0,0,0
2.657,2.5,0,0,0,0,0
2.658,3.125,0,0,0,0,0
2.659,3.4375,0,0,0,0,0
2.66,3.5625,0,0,0,0,0
2.661,4.0625,0,0,0,0,0
2.662,3.9375,0,0,0,0,0
2.663,3.75,0,0,0,0,0
2.664,4.0625,0,0,0,0,0
2.665,4.6875,0,0,0,0,0
2.666,5.125,0,0,0,0,0
2.667,5.3125,0,0,0,0,0
2.668,5.625,0,0,0,0,0
2.669,6.25,0,0,0,0,0
2.67,7.3125,0,0,0,0,0
2.671,7.5,0,0,0,0,0
2.672,6.875,0,0,0,0,0
2.673,6.5625,0,0,0,0,0
2.674,6.125,0,0,0,0,0
2.675,5.9375,0,0,0,0,0
2.676,4.0625,0,0,0,0,0
2.677,2.5,0,0,0,0,0
2.678,1.875,0,0,0,0,0
2.679,0.625,0,0,0,0,0
2.68,1.25,0,0,0,0,0
2.681,2.5,0,0,0,0,0
2.682,2.625,0,0,0,0,0
2.683,2.8125,0,0,0,0,0
2.684,1.25,0,0,0,0,0
2.685,0.3125,0,0,0,0,0
2.686,1.0625,0,0,0,0,0
2.687,1.5625,0,0,0,0,0
2.688,1.75,0,0,0,0,0
2.689,1.5625,0,0,0,0,0
2.69,1.6875,0,0,0,0,0
2.691,0.9375,0,0,0,0,0
2.692,1.5625,0,0,0,0,0
2.693,2.5,0,0,0,0,0
2.694,3.125,0,0,0,0,0
2.695,3.75,0,0,0,0,0
2.696,3.625,0,0,0,0,0
2.697,3.125,0,0,0,0,0
2.698,2.6875,0,0,0,0,0
2.699,2.5,0,0,0,0,0
2.7,3.125,0,0,0,0,0
2.701,3.4375,0,0,0,0,0
2.702,3.5625,0,0,0,0,0
2.703,3.4375,0,0,0,0,0
2.704,3.125,0,0,0,0,0
2.705,3.4375,0,0,0,0,0
2.706,3.5625,0,0,0,0,0
2.707,3.75,0,0,0,0,0
2.708,3.125,0,0,0,0,0
2.709,3.4375,0,0,0,0,0
2.71,2.8125,0,0,0,0,0
2.711,2.5,0,0,0,0,0
2.712,2.8125,0,0,0,0,0
2.713,2.5,0,0,0,0,0
2.714,2.9375,0,0,0,0,0
2.715,2.8125,0,0,0,0,0
2.716,2.8125,0,0,0,0,0
2.717,3.125,0,0,0,0,0
2.718,2.8125,0,0,0,0,0
2.719,2.5,0,0,0,0,0
2.72,2.5,0,0,0,0,0
2.721,3.125,0,0,0,0,0
2.722,3.25,0,0,0,0,0
2.723,3.4375,0,0,0,0,0
2.724,3,0,0,0,0,0
2.725,3.125,0,0,0,0,0
2.726,2.9375,0,0,0,0,0
2.727,2.8125,0,0,0,0,0
2.728,3,0,0,0,0,0
2.729,3.125,0,0,0,0,0
2.73,3,0,0,0,0,0
2.731,2.8125,0,0,0,0,0
2.732,3.125,0,0,0,0,0
2.733,3.4375,0,0,0,0,0
2.734,3.75,0,0,0,0,0
2.735,4.0625,0,0,0,0,0
2.736,4.5625,0,0,0,0,0
2.737,4.6875,0,0,0,0,0
2.738,3.9375,0,0,0,0,0
2.739,3.4375,0,0,0,0,0
2.74,3.3125,0,0,0,0,0
2.741,3.125,0,0,0,0,0
2.742,2.8125,0,0,0,0,0
2.743,2.5,0,0,0,0,0
2.744,2.9375,0,0,0,0,0
2.745,3.4375,0,0,0,0,0
2.746,4.0625,0,0,0,0,0
2.747,5.3125,0,0,0,0,0
2.748,4.25,0,0,0,0,0
2.749,3.125,0,0,0,0,0
2.75,3.125,0,0,0,0,0
2.751,3.125,0,0,0,0,0
2.752,3.5625,0,0,0,0,0
2.753,4.375,0,0,0,0,0
2.754,4.6875,0,0,0,0,0
2.755,4.6875,0,0,0,0,0
2.756,5,0,0,0,0,0
2.757,5,0,0,0,0,0
2.758,5.625,0,0,0,0,0
2.759,5.625,0,0,0,0,0
2.76,4.375,0,0,0,0,0
2.761,4.6875,0,0,0,0,0
2.762,4.5625,0,0,0,0,0
2.763,3.75,0,0,0,0,0
2.764,2.375,0,0,0,0,0
2.765,2.1875,0,0,0,0,0
2.766,2.1875,0,0,0,0,0
2.767,1.875,0,0,0,0,0
2.768,2.9375,0,0,0,0,0
2.769,3.125,0,0,0,0,0
2.77,2.1875,0,0,0,0,0
2.771,1.25,0,0,0,0,0
2.772,1.6875,0,0,0,0,0
2.773,1.875,0,0,0,0,0
2.774,2.3125,0,0,0,0,0
2.775,2.5,0,0,0,0,0
2.776,2.1875,0,0,0,0,0
2.777,2.1875,0,0,0,0,0
2.778,2.5,0,0,0,0,0
2.779,2.5,0,0,0,0,0
2.78,2.9375,0,0,0,0,0
2.781,3.4375,0,0,0,0,0
2.782,3.875,0,0,0,0,0
2.783,3.75,0,0,0,0,0
2.784,3.75,0,0,0,0,0
2.785,3.4375,0,0,0,0,0
2.786,3.4375,0,0,0,0,0
2.787,3.4375,0,0,0,0,0
2.788,3.125,0,0,0,0,0
2.789,3.4375,0,0,0,0,0
2.79,3.4375,0,0,0,0,0
2.791,3.4375,0,0,0,0,0
2.792,3.4375,0,0,0,0,0
2.793,3.4375,0,0,0,0,0
2.794,3.4375,0,0,0,0,0
2.795,3.125,0,0,0,0,0
2.796,3.125,0,0,0,0,0
2.797,3.125,0,0,0,0,0
2.798,3,0,0,0,0,0
2.799,2.8125,0,0,0,0,0
2.8,3.4375,0,0,0,0,0
2.801,4.375,0,0,0,0,0
2.802,4.0625,0,0,0,0,0
2.803,3.75,0,0,0,0,0
2.804,3.75,0,0,0,0,0
2.805,3.125,0,0,0,0,0
2.806,3,0,0,0,0,0
2.807,3.75,0,0,0,0,0
2.808,3.625,0,0,0,0,0
2.809,3.75,0,0,0,0,0
2.81,3.4375,0,0,0,0,0
2.811,3.75,0,0,0,0,0
2.812,3.75,0,0,0,0,0
2.813,3.75,0,0,0,0,0
2.814,3.3125,0,0,0,0,0
2.815,3.4375,0,0,0,0,0
2.816,4.6875,0,0,0,0,0
2.817,5.3125,0,0,0,0,0
2.818,4.6875,0,0,0,0,0
2.819,4.375,0,0,0,0,0
2.82,5,0,0,0,0,0
2.821,5,0,0,0,0,0
2.822,4.25,0,0,0,0,0
2.823,4.375,0,0,0,0,0
2.824,5.125,0,0,0,0,0
2.825,5,0,0,0,0,0
2.826,4.6875,0,0,0,0,0
2.827,4.6875,0,0,0,0,0
2.828,4.875,0,0,0,0,0
2.829,5.3125,0,0,0,0,0
2.83,5,0,0,0,0,0
2.831,5,0,0,0,0,0
2.832,5.4375,0,0,0,0,0
2.833,6.25,0,0,0,0,0
2.834,6.25,0,0,0,0,0
2.835,6.5625,0,0,0,0,0
2.836,6.25,0,0,0,0,0
2.837,5.9375,0,0,0,0,0
2.838,5.3125,0,0,0,0,0
2.839,5,0,0,0,0,0
2.84,4.875,0,0,0,0,0
2.841,5.3125,0,0,0,0,0
2.842,5.1875,0,0,0,0,0
2.843,5,0,0,0,0,0
2.844,5.3125,0,0,0,0,0
2.845,5.9375,0,0,0,0,0
2.846,6.0625,0,0,0,0,0
2.847,6.5625,0,0,0,0,0
2.848,6.75,0,0,0,0,0
2.849,6.875,0,0,0,0,0
2.85,6.5625,0,0,0,0,0
2.851,5.625,0,0,0,0,0
2.852,6.0625,0,0,0,0,0
2.853,6.25,0,0,0,0,0
2.854,6.6875,0,0,0,0,0
2.855,7.5,0,0,0,0,0
2.856,7.375,0,0,0,0,0
2.857,6.875,0,0,0,0,0
2.858,6.75,0,0,0,0,0
2.859,6.5625,0,0,0,0,0
2.86,6.875,0,0,0,0,0
2.861,6.875,0,0,0,0,0
2.862,7.1875,0,0,0,0,0
2.863,7.1875,0,0,0,0,0
2.864,6.4375,0,0,0,0,0
2.865,5.3125,0,0,0,0,0
2.866,6.875,0,0,0,0,0
2.867,7.5,0,0,0,0,0
2.868,6.75,0,0,0,0,0
2.869,5.625,0,0,0,0,0
2.87,5.5,0,0,0,0,0
2.871,5.3125,0,0,0,0,0
2.872,5.9375,0,0,0,0,0
2.873,6.25,0,0,0,0,0
2.874,5.75,0,0,0,0,0
2.875,5.9375,0,0,0,0,0
2.876,6.25,0,0,0,0,0
2.877,5.9375,0,0,0,0,0
2.878,6.125,0,0,0,0,0
2.879,6.25,0,0,0,0,0
2.88,6.0625,0,0,0,0,0
2.881,6.5625,0,0,0,0,0
2.882,6.5625,0,0,0,0,0
2.883,6.875,0,0,0,0,0
2.884,7.1875,0,0,0,0,0
2.885,7.1875,0,0,0,0,0
2.886,7.5,0,0,0,0,0
2.887,8.4375,0,0,0,0,0
2.888,9.1875,0,0,0,0,0
2.889,9.375,0,0,0,0,0
2.89,8.625,0,0,0,0,0
2.891,8.4375,0,0,0,0,0
2.892,8.3125,0,0,0,0,0
2.893,7.5,0,0,0,0,0
2.894,7.375,0,0,0,0,0
2.895,6.875,0,0,0,0,0
2.896,6.4375,0,0,0,0,0
2.897,5,0,0,0,0,0
2.898,4.375,0,0,0,0,0
2.899,4.0625,0,0,0,0,0
2.9,4.375,0,0,0,0,0
2.901,5,0,0,0,0,0
2.902,5.125,0,0,0,0,0
2.903,5.3125,0,0,0,0,0
2.904,5.3125,0,0,0,0,0
2.905,5,0,0,0,0,0
2.906,5,0,0,0,0,0
2.907,5.3125,0,0,0,0,0
2.908,6.25,0,0,0,0,0
2.909,7.5,0,0,0,0,0
2.91,7.5,0,0,0,0,0
2.911,6.875,0,0,0,0,0
2.912,6.25,0,0,0,0,0
2.913,5.9375,0,0,0,0,0
2.914,5.625,0,0,0,0,0
2.915,5,0,0,0,0,0
2.916,5,0,0,0,0,0
2.917,4.0625,0,0,0,0,0
2.918,3.75,0,0,0,0,0
2.919,3.75,0,0,0,0,0
2.92,3.5625,0,0,0,0,0
2.921,3.4375,0,0,0,0,0
2.922,3.875,0,0,0,0,0
2.923,4.375,0,0,0,0,0
2.924,4.25,0,0,0,0,0
2.925,4.0625,0,0,0,0,0
2.926,4.0625,0,0,0,0,0
2.927,3.4375,0,0,0,0,0
2.928,3.625,0,0,0,0,0
2.929,3.4375,0,0,0,0,0
2.93,3.5625,0,0,0,0,0
2.931,3.4375,0,0,0,0,0
2.932,3.3125,0,0,0,0,0
2.933,3.4375,0,0,0,0,0
2.934,3.75,0,0,0,0,0
2.935,3.75,0,0,0,0,0
2.936,3.125,0,0,0,0,0
2.937,2.8125,0,0,0,0,0
2.938,2.1875,0,0,0,0,0
2.939,1.25,0,0,0,0,0
2.94,2.3125,0,0,0,0,0
2.941,2.8125,0,0,0,0,0
2.942,2.625,0,0,0,0,0
2.943,3.125,0,0,0,0,0
2.944,3,0,0,0,0,0
2.945,2.8125,0,0,0,0,0
2.946,3.25,0,0,0,0,0
2.947,3.4375,0,0,0,0,0
2.948,3.125,0,0,0,0,0
2.949,3.125,0,0,0,0,0
2.95,2.8125,0,0,0,0,0
2.951,2.5,0,0,0,0,0
2.952,1.875,0,0,0,0,0
2.953,1.875,0,0,0,0,0
2.954,1.6875,0,0,0,0,0
2.955,1.5625,0,0,0,0,0
2.956,1.5625,0,0,0,0,0
2.957,1.5625,0,0,0,0,0
2.958,2.5,0,0,0,0,0
2.959,2.1875,0,0,0,0,0
2.96,1.6875,0,0,0,0,0
2.961,2.1875,0,0,0,0,0
2.962,2.1875,0,0,0,0,0
2.963,2.1875,0,0,0,0,0
2.964,2.5,0,0,0,0,0
2.965,2.8125,0,0,0,0,0
2.966,2.625,0,0,0,0,0
2.967,3.125,0,0,0,0,0
2.968,2.8125,0,0,0,0,0
2.969,2.8125,0,0,0,0,0
2.97,2.1875,0,0,0,0,0
2.971,2.5,0,0,0,0,0
2.972,2.6875,0,0,0,0,0
2.973,2.8125,0,0,0,0,0
2.974,3,0,0,0,0,0
2.975,2.8125,0,0,0,0,0
2.976,3.75,0,0,0,0,0
2.977,3.4375,0,0,0,0,0
2.978,3.75,0,0,0,0,0
2.979,4.6875,0,0,0,0,0
2.98,5.1875,0,0,0,0,0
2.981,4.6875,0,0,0,0,0
2.982,4.6875,0,0,0,0,0
2.983,5,0,0,0,0,0
2.984,4.25,0,0,0,0,0
2.985,3.125,0,0,0,0,0
2.986,3.75,0,0,0,0,0
2.987,3.75,0,0,0,0,0
2.988,3.875,0,0,0,0,0
2.989,4.375,0,0,0,0,0
2.99,4.0625,0,0,0,0,0
2.991,3.75,0,0,0,0,0
2.992,3.125,0,0,0,0,0
2.993,2.8125,0,0,0,0,0
2.994,3.25,0,0,0,0,0
2.995,3.4375,0,0,0,0,0
2.996,3.125,0,0,0,0,0
2.997,2.8125,0,0,0,0,0
2.998,3.125,0,0,0,0,0
2.999,4.0625,0,0,0,0,0
3,4.0625,0,0,0,0,0
3.001,4.375,0,0,0,0,0
3.002,5.3125,1,0,0,0,0
3.003,5,0,0,0,0,0
3.004,4.875,0,0,0,0,0
3.005,4.6875,0,0,0,0,0
3.006,5.75,0,0,0,0,0
3.007,6.25,0,0,0,0,0
3.008,6.125,0,0,0,0,0
3.009,6.875,0,0,0,0,0
3.01,6.75,0,0,0,0,0
3.011,7.1875,0,0,0,0,0
3.012,7.375,0,0,0,0,0
3.013,7.8125,0,0,0,0,0
3.014,8.4375,0,0,0,0,0
3.015,9.375,0,0,0,0,0
3.016,10.313,0,0,0,0,0
3.017,10.625,0,0,0,0,0
3.018,12,0,0,0,0,0
3.019,13.438,0,0,0,0,0
3.02,15,0,0,0,0,0
3.021,16.563,0,0,0,0,0
3.022,18.438,0,0,0,0,0
3.023,20,0,0,0,0,0
3.024,21.25,0,0,0,0,0
3.025,22.813,0,0,0,0,0
3.026,25.313,0,0,0,0,0
3.027,27.188,0,0,0,0,0
3.028,30,0,0,0,0,0
3.029,32.5,0,0,0,0,0
3.03,36.063,0,0,0,0,0
3.031,39.375,0,0,0,0,0
3.032,42.188,0,0,0,0,0
3.033,45,0,0,0,0,0
3.034,48.75,0,0,0,0,0
3.035,52.188,0,0,0,0,0
3.036,55.125,0,0,0,0,0
3.037,57.813,0,0,0,0,0
3.038,60.938,0,0,0,0,0
3.039,64.688,0,0,0,0,0
3.04,67.5,0,0,0,0,0
3.041,70,0,1,0,0,0
3.042,71.438,0,0,0,0,0
3.043,71.875,0,0,0,0,0
3.044,72.313,0,0,0,0,0
3.045,73.125,0,0,0,0,0
3.046,74.188,0,0,0,0,0
3.047,75,0,0,0,0,0
3.048,75.625,0,0,0,0,0
3.049,75.625,0,0,0,0,0
3.05,74.375,0,0,0,0,0
3.051,73.125,0,0,0,0,0
3.052,71.688,0,0,0,0,0
3.053,70.625,0,0,0,0,0
3.054,70.313,0,0,0,0,0
3.055,69.688,0,0,0,0,0
3.056,69.188,0,0,0,0,0
3.057,67.5,0,0,0,0,0
3.058,63.438,0,0,0,0,0
3.059,57.813,0,0,0,0,0
3.06,52.5,0,0,0,0,0
3.061,46.875,0,0,0,0,0
3.062,40.625,0,0,0,0,0
3.063,35.625,0,0,0,0,0
3.064,30.813,0,0,0,0,0
3.065,26.25,0,0,0,0,0
3.066,22.375,0,0,0,0,0
3.067,19.688,0,0,0,0,0
3.068,18.875,0,0,0,0,0
3.069,18.125,0,0,0,0,0
3.07,17.625,0,0,0,0,0
3.071,16.25,0,0,0,0,0
3.072,14.063,0,0,0,0,0
3.073,12.5,0,0,0,0,0
3.074,11.063,0,0,0,0,0
3.075,10.313,0,0,0,0,0
3.076,8.9375,0,0,0,0,0
3.077,7.1875,0,0,0,0,0
3.078,7.1875,0,0,0,0,0
3.079,7.1875,0,0,0,0,0
3.08,7.625,0,0,1,0,0
3.081,8.125,0,0,0,0,0
3.082,7.8125,0,0,0,0,0
3.083,8.125,0,0,0,0,0
3.084,7.0625,0,0,0,0,0
3.085,6.25,0,0,0,0,0
3.086,5.75,0,0,0,0,0
3.087,4.6875,0,0,0,0,0
3.088,3.3125,0,0,0,0,0
3.089,1.875,0,0,0,0,0
3.09,0.8125,0,0,0,0,0
3.091,0.9375,0,0,0,0,0
3.092,1.125,0,0,0,0,0
3.093,0.9375,0,0,0,0,0
3.094,0.8125,0,0,0,0,0
3.095,0,0,0,0,0,0
3.096,-0.9375,0,0,0,0,0
3.097,-2.1875,0,0,0,0,0
3.098,-1.875,0,0,0,0,0
3.099,-1.875,0,0,0,0,0
3.1,-1.4375,0,0,0,0,0
3.101,-0.9375,0,0,0,0,0
3.102,-0.9375,0,0,0,0,0
3.103,0.3125,0,0,0,0,0
3.104,0.625,0,0,0,0,0
3.105,0.3125,0,0,0,0,0
3.106,-0.1875,0,0,0,0,0
3.107,0,0,0,0,0,0
3.108,0.625,0,0,0,0,0
3.109,0.9375,0,0,0,0,0
3.11,0.9375,0,0,0,0,0
3.111,0.625,0,0,0,0,0
3.112,1.0625,0,0,0,0,0
3.113,1.25,0,0,0,0,0
3.114,0.3125,0,0,0,0,0
3.115,0.3125,0,0,0,0,0
3.116,-0.4375,0,0,0,0,0
3.117,-0.9375,0,0,0,0,0
3.118,-0.125,0,0,0,0,0
3.119,-0.3125,0,0,0,0,0
3.12,0,0,0,0,0,0
3.121,0,0,0,0,0,0
3.122,-0.9375,0,0,0,0,0
3.123,-0.9375,0,0,0,0,0
3.124,-0.3125,0,0,0,0,0
3.125,-0.3125,0,0,0,0,0
3.126,0,0,0,0,0,0
3.127,0.625,0,0,0,0,0
3.128,1.0625,0,0,0,0,0
3.129,1.25,0,0,0,0,0
3.13,0.9375,0,0,0,0,0
3.131,0.9375,0,0,0,0,0
3.132,1.25,0,0,0,0,0
3.133,1.875,0,0,0,0,0
3.134,1.5625,0,0,0,0,0
3.135,1.875,0,0,0,0,0
3.136,2,0,0,0,0,0
3.137,1.875,0,0,0,0,0
3.138,2.1875,0,0,0,0,0
3.139,2.1875,0,0,0,0,0
3.14,1.75,0,0,0,0,0
3.141,2.1875,0,0,0,0,0
3.142,2.6875,0,0,0,0,0
3.143,2.5,0,0,0,0,0
3.144,1.125,0,0,0,0,0
3.145,-0.3125,0,0,0,0,0
3.146,-1.375,0,0,0,0,0
3.147,-2.5,0,0,0,0,0
3.148,-1.5625,0,0,0,0,0
3.149,-0.625,0,0,0,0,0
3.15,-0.625,0,0,0,0,0
3.151,-0.3125,0,0,0,0,0
3.152,-0.4375,0,0,0,0,0
3.153,-0.625,0,0,0,0,0
3.154,0.4375,0,0,0,0,0
3.155,0.625,0,0,0,0,0
3.156,0.1875,0,0,0,0,0
3.157,-0.3125,0,0,0,0,0
3.158,0,0,0,0,0,0
3.159,-0.3125,0,0,0,0,0
3.16,-0.4375,0,0,0,0,0
3.161,-0.625,0,0,0,0,0
3.162,-0.9375,0,0,0,0,0
3.163,-0.9375,0,0,0,0,0
3.164,-0.75,0,0,0,0,0
3.165,-1.25,0,0,0,0,0
3.166,-1.0625,0,0,0,0,0
3.167,-0.3125,0,0,0,0,0
3.168,-0.9375,0,0,0,0,0
3.169,-0.625,0,0,0,0,0
3.17,0,0,0,0,0,0
3.171,-0.3125,0,0,0,0,0
3.172,-0.3125,0,0,0,0,0
3.173,0.3125,0,0,0,0,0
3.174,0.125,0,0,0,0,0
3.175,0,0,0,0,0,0
3.176,0.1875,0,0,0,0,0
3.177,0.3125,0,0,0,0,0
3.178,0,0,0,0,0,0
3.179,0.3125,0,0,0,0,0
3.18,0,0,0,0,0,0
3.181,-0.3125,0,0,0,0,0
3.182,0.125,0,0,0,0,0
3.183,0,0,0,0,0,0
3.184,-0.125,0,0,0,0,0
3.185,0,0,0,0,0,0
3.186,-0.1875,0,0,0,0,0
3.187,0,0,0,0,0,0
3.188,0.4375,0,0,0,0,0
3.189,0.625,0,0,0,0,0
3.19,0.9375,0,0,0,0,0
3.191,1.25,0,0,0,0,0
3.192,2.625,0,0,0,0,0
3.193,3.75,0,0,0,0,0
3.194,3,0,0,0,0,0
3.195,2.1875,0,0,0,0,0
3.196,2.0625,0,0,0,0,0
3.197,1.875,0,0,0,0,0
3.198,2.3125,0,0,0,0,0
3.199,2.8125,0,0,0,0,0
3.2,2.5,0,0,0,0,0
3.201,1.875,0,0,0,0,0
3.202,1.125,0,0,0,0,0
3.203,0.625,0,0,0,0,0
3.204,-0.125,0,0,0,0,0
3.205,0.625,0,0,0,0,0
3.206,0,0,0,0,0,0
3.207,-0.3125,0,0,0,0,0
3.208,-0.3125,0,0,0,0,0
3.209,-0.625,0,0,0,0,0
3.21,-0.3125,0,0,0,0,0
3.211,0,0,0,0,0,0
3.212,-1.25,0,0,0,0,0
3.213,-2.1875,0,0,0,0,0
3.214,-2.625,0,0,0,0,0
3.215,-2.5,0,0,0,0,0
3.216,-2.375,0,0,0,0,0
3.217,-2.8125,0,0,0,0,0
3.218,-2.375,0,0,0,0,0
3.219,-1.875,0,0,0,0,0
3.22,-1.125,0,0,0,0,0
3.221,-0.9375,0,0,0,0,0
3.222,-0.8125,0,0,0,0,0
3.223,-0.3125,0,0,0,0,0
3.224,0,0,0,0,0,0
3.225,-0.3125,0,0,0,0,0
3.226,0,0,0,0,0,0
3.227,0.9375,0,0,0,0,0
3.228,1.25,0,0,0,0,0
3.229,1.25,0,0,0,0,0
3.23,1.0625,0,0,0,0,0
3.231,0.9375,0,0,0,0,0
3.232,0.5,0,0,0,0,0
3.233,0,0,0,0,0,0
3.234,0,0,0,0,0,0
3.235,-0.625,0,0,0,0,0
3.236,-0.3125,0,0,0,0,0
3.237,-0.625,0,0,0,0,0
3.238,0.5,0,0,0,0,0
3.239,0.3125,0,0,0,0,0
3.24,-0.3125,0,0,0,0,0
3.241,-0.3125,0,0,0,0,0
3.242,-2,0,0,0,0,0
3.243,-1.875,0,0,0,0,0
3.244,-2.1875,0,0,0,0,0
3.245,-2.1875,0,0,0,0,0
3.246,-2.0625,0,0,0,0,0
3.247,-1.25,0,0,0,0,0
3.248,-0.3125,0,0,0,0,0
3.249,-0.3125,0,0,0,0,0
3.25,-0.9375,0,0,0,0,0
3.251,-0.9375,0,0,0,0,0
3.252,-0.9375,0,0,0,0,0
3.253,-0.9375,0,0,0,0,0
3.254,-1.25,0,0,0,0,0
3.255,-0.9375,0,0,0,0,0
3.256,-1.375,0,0,0,0,0
3.257,-2.1875,0,0,0,0,0
3.258,-1.4375,0,0,0,0,0
3.259,-1.25,0,0,0,0,0
3.26,-1.125,0,0,0,0,0
3.261,0,0,0,0,0,0
3.262,-0.625,0,0,0,0,0
3.263,-0.625,0,0,0,0,0
3.264,-0.75,0,0,0,0,0
3.265,-0.625,0,0,0,0,0
3.266,0,0,0,0,0,0
3.267,0.3125,0,0,0,0,0
3.268,0.75,0,0,0,0,0
3.269,1.25,0,0,0,0,0
3.27,1.125,0,0,0,0,0
3.271,0.9375,0,0,0,0,0
3.272,0.1875,0,0,0,0,0
3.273,0.3125,0,0,0,0,0
3.274,0.4375,0,0,0,0,0
3.275,0.3125,0,0,0,0,0
3.276,0.4375,0,0,0,0,0
3.277,0.3125,0,0,0,0,0
3.278,0.1875,0,0,0,0,0
3.279,0,0,0,0,0,0
3.28,-0.3125,0,0,0,0,0
3.281,-0.3125,0,0,0,0,0
3.282,-0.3125,0,0,0,0,0
3.283,-0.9375,0,0,0,0,0
3.284,-1.6875,0,0,0,0,0
3.285,-1.25,0,0,0,0,0
3.286,-0.8125,0,0,0,0,0
3.287,0,0,0,0,0,0
3.288,0,0,0,0,0,0
3.289,0,0,0,0,0,0
3.29,0,0,0,0,0,0
3.291,-0.625,0,0,0,0,0
3.292,-0.9375,0,0,0,0,0
3.293,-1.25,0,0,0,0,0
3.294,-1.375,0,0,0,0,0
3.295,-1.5625,0,0,0,0,0
3.296,0.125,0,0,0,0,0
3.297,0.625,0,0,0,0,0
3.298,0.9375,0,0,0,0,0
3.299,1.5625,0,0,0,0,0
3.3,0.75,0,0,0,0,0
3.301,0.9375,0,0,0,0,0
3.302,1.125,0,0,0,0,0
3.303,0.9375,0,0,0,0,0
3.304,1.125,0,0,0,0,0
3.305,0.625,0,0,0,0,0
3.306,0.8125,0,0,0,0,0
3.307,0.9375,0,0,0,0,0
3.308,1.6875,0,0,0,0,0
3.309,1.875,0,0,0,0,0
3.31,1.125,0,0,0,0,0
3.311,0.3125,0,0,0,0,0
3.312,-0.4375,0,0,0,0,0
3.313,-0.9375,0,0,0,0,0
3.314,-0.1875,0,0,0,0,0
3.315,0.625,0,0,0,0,0
3.316,0.4375,0,0,0,0,0
3.317,0,0,0,0,0,0
3.318,0,0,0,0,0,0
3.319,-0.625,0,0,0,0,0
3.32,-0.9375,0,0,0,0,0
3.321,-0.3125,0,0,0,0,0
3.322,-0.3125,0,0,0,0,0
3.323,-0.3125,0,0,0,0,0
3.324,-0.75,0,0,0,0,0
3.325,-0.9375,0,0,0,0,0
3.326,-0.8125,0,0,0,0,0
3.327,-0.9375,0,0,0,0,0
3.328,0,0,0,0,0,0
3.329,0.9375,0,0,0,0,0
3.33,1.25,0,0,0,0,0
3.331,1.25,0,0,0,0,0
3.332,1.5625,0,0,0,0,0
3.333,1.25,0,0,0,0,0
3.334,1.375,0,0,0,0,0
3.335,1.25,0,0,0,0,0
3.336,0.9375,0,0,0,0,0
3.337,-0.3125,0,0,0,0,0
3.338,-1.0625,0,0,0,0,0
3.339,-1.25,0,0,0,0,0
3.34,-0.625,0,0,0,0,0
3.341,-0.625,0,0,0,0,0
3.342,-0.9375,0,0,0,0,0
3.343,-0.9375,0,0,0,0,0
3.344,-0.9375,0,0,0,0,0
3.345,-1.25,0,0,0,0,0
3.346,-1.6875,0,0,0,0,0
3.347,-1.5625,0,0,0,0,0
3.348,0,0,0,0,0,0
3.349,0.625,0,0,0,0,0
3.35,0.4375,0,0,0,0,0
3.351,0.3125,0,0,0,0,0
3.352,0.1875,0,0,0,0,0
3.353,-0.3125,0,0,0,0,0
3.354,-0.125,0,0,0,0,0
3.355,-0.3125,0,0,0,0,0
3.356,-0.625,0,0,0,0,0
3.357,-1.25,0,0,0,0,0
3.358,-1.5625,0,0,0,0,0
3.359,-1.5625,0,0,0,0,0
3.36,-0.9375,0,0,0,0,0
3.361,-0.3125,0,0,0,0,0
3.362,-0.5,0,0,0,0,0
3.363,-0.625,0,0,0,0,0
3.364,-0.5,0,0,0,0,0
3.365,-0.625,0,0,0,0,0
3.366,-0.75,0,0,0,0,0
3.367,-0.625,0,0,0,0,0
3.368,-0.1875,0,0,0,0,0
3.369,0,0,0,0,0,0
3.37,-0.625,0,0,0,0,0
3.371,-0.625,0,0,0,0,0
3.372,-0.625,0,0,0,0,0
3.373,-0.625,0,0,0,0,0
3.374,-0.125,0,0,0,0,0
3.375,0.3125,0,0,0,0,0
3.376,0.4375,0,0,0,0,0
3.377,0.625,0,0,0,0,0
3.378,0.75,0,0,0,0,0
3.379,0.9375,0,0,0,0,0
3.38,2,0,0,0,0,0
3.381,3.125,0,0,0,0,0
3.382,3.625,0,0,0,0,0
3.383,3.4375,0,0,0,0,0
3.384,2.5,0,0,0,0,0
3.385,1.25,0,0,0,0,0
3.386,0.9375,0,0,0,0,0
3.387,1.25,0,0,0,0,0
3.388,1.5625,0,0,0,0,0
3.389,1.5625,0,0,0,0,0
3.39,1.75,0,0,0,0,0
3.391,1.5625,0,0,0,0,0
3.392,1.5625,0,0,0,0,0
3.393,1.5625,0,0,0,0,0
3.394,2.1875,0,0,0,0,0
3.395,2.1875,0,0,0,0,0
3.396,2.1875,0,0,0,0,0
3.397,1.875,0,0,0,0,0
3.398,2.625,0,0,0,0,0
3.399,3.125,0,0,0,0,0
3.4,3.75,0,0,0,0,0
3.401,4.6875,0,0,0,0,0
3.402,4.8125,0,0,0,0,0
3.403,5,0,0,0,0,0
3.404,5,0,0,0,0,0
3.405,4.0625,0,0,0,0,0
3.406,3.4375,0,0,0,0,0
3.407,3.4375,0,0,0,0,0
3.408,3.75,0,0,0,0,0
3.409,4.375,0,0,0,0,0
3.41,3.125,0,0,0,0,0
3.411,2.5,0,0,0,0,0
3.412,2.8125,0,0,0,0,0
3.413,3.125,0,0,0,0,0
3.414,4.1875,0,0,0,0,0
3.415,4.6875,0,0,0,0,0
3.416,4.375,0,0,0,0,0
3.417,4.6875,0,0,0,0,0
3.418,4.5,0,0,0,0,0
3.419,5,0,0,0,0,0
3.42,4.6875,0,0,0,0,0
3.421,4.6875,0,0,0,0,0
3.422,4.375,0,0,0,0,0
3.423,4.6875,0,0,0,0,0
3.424,5.3125,0,0,0,0,0
3.425,5,0,0,0,0,0
3.426,5.1875,0,0,0,0,0
3.427,5,0,0,0,0,0
3.428,5.1875,0,0,0,0,0
3.429,5.3125,0,0,0,0,0
3.43,5.3125,0,0,0,0,0
3.431,5,0,0,0,0,0
3.432,5.625,0,0,0,0,0
3.433,5.3125,0,0,0,0,0
3.434,5.125,0,0,0,0,0
3.435,5.3125,0,0,0,0,0
3.436,5,0,0,0,0,0
3.437,5,0,0,0,0,0
3.438,5,0,0,0,0,0
3.439,5.625,0,0,0,0,0
3.44,5.75,0,0,0,0,0
3.441,5.9375,0,0,0,0,0
3.442,6.4375,0,0,0,0,0
3.443,6.5625,0,0,0,0,0
3.444,6.5625,0,0,0,0,0
3.445,6.5625,0,0,0,0,0
3.446,6.25,0,0,0,0,0
3.447,6.5625,0,0,0,0,0
3.448,6.4375,0,0,0,0,0
3.449,6.25,0,0,0,0,0
3.45,5.9375,0,0,0,0,0
3.451,5.9375,0,0,0,0,0
3.452,7.8125,0,0,0,0,0
3.453,9.0625,0,0,0,1,0
3.454,8.875,0,0,0,0,0
3.455,8.75,0,0,0,0,0
3.456,8.125,0,0,0,0,0
3.457,6.875,0,0,0,0,0
3.458,5.625,0,0,0,0,0
3.459,4.375,0,0,0,0,0
3.46,3.75,0,0,0,0,0
3.461,2.5,0,0,0,0,0
3.462,1.5625,0,0,0,0,0
3.463,0.9375,0,0,0,0,0
3.464,0.5,0,0,0,0,0
3.465,0.9375,0,0,0,0,0
3.466,1.875,0,0,0,0,0
3.467,3.125,0,0,0,0,0
3.468,3.5625,0,0,0,0,0
3.469,3.4375,0,0,0,0,0
3.47,3.4375,0,0,0,0,0
3.471,3.75,0,0,0,0,0
3.472,4.25,0,0,0,0,0
3.473,4.375,0,0,0,0,0
3.474,4.8125,0,0,0,0,0
3.475,4.6875,0,0,0,0,0
3.476,4.5625,0,0,0,0,0
3.477,4.375,0,0,0,0,0
3.478,4.6875,0,0,0,0,0
3.479,4.6875,0,0,0,0,0
3.48,5,0,0,0,0,0
3.481,5,0,0,0,0,0
3.482,5,0,0,0,0,0
3.483,5,0,0,0,0,0
3.484,5.3125,0,0,0,0,0
3.485,5.3125,0,0,0,0,0
3.486,5.625,0,0,0,0,0
3.487,5.625,0,0,0,0,0
3.488,5.625,0,0,0,0,0
3.489,5.625,0,0,0,0,0
3.49,4.6875,0,0,0,0,0
3.491,4.375,0,0,0,0,0
3.492,4.875,0,0,0,0,0
3.493,4.375,0,0,0,0,0
3.494,4.375,0,0,0,0,0
3.495,4.375,0,0,0,0,0
3.496,4.5625,0,0,0,0,0
3.497,3.4375,0,0,0,0,0
3.498,3.3125,0,0,0,0,0
3.499,3.4375,0,0,0,0,0
3.5,3.4375,0,0,0,0,0
3.501,3.4375,0,0,0,0,0
3.502,3.75,0,0,0,0,0
3.503,3.75,0,0,0,0,0
3.504,3.75,0,0,0,0,0
3.505,3.75,0,0,0,0,0
3.506,3.75,0,0,0,0,0
3.507,4.375,0,0,0,0,0
3.508,5.3125,0,0,0,0,0
3.509,5.3125,0,0,0,0,0
3.51,5,0,0,0,0,0
3.511,4.6875,0,0,0,0,0
3.512,4.0625,0,0,0,0,0
3.513,3.75,0,0,0,0,0
3.514,3.9375,0,0,0,0,0
3.515,3.75,0,0,0,0,0
3.516,3.875,0,0,0,0,0
3.517,4.375,0,0,0,0,0
3.518,4.0625,0,0,0,0,0
3.519,4.375,0,0,0,0,0
3.52,4.6875,0,0,0,0,0
3.521,4.6875,0,0,0,0,0
3.522,4.25,0,0,0,0,0
3.523,4.0625,0,0,0,0,0
3.524,3.125,0,0,0,0,0
3.525,2.8125,0,0,0,0,0
3.526,3.4375,0,0,0,0,0
3.527,3.75,0,0,0,0,0
3.528,4.1875,0,0,0,0,0
3.529,4.375,0,0,0,0,0
3.53,3.625,0,0,0,0,0
3.531,2.8125,0,0,0,0,0
3.532,2.1875,0,0,0,0,0
3.533,1.875,0,0,0,0,0
3.534,2.375,0,0,0,0,0
3.535,1.875,0,0,0,0,0
3.536,2.3125,0,0,0,0,0
3.537,3.125,0,0,0,0,0
3.538,3.25,0,0,0,0,0
3.539,3.75,0,0,0,0,0
3.54,4.0625,0,0,0,0,0
3.541,3.75,0,0,0,0,0
3.542,3.875,0,0,0,0,0
3.543,3.75,0,0,0,0,0
3.544,3.4375,0,0,0,0,0
3.545,3.125,0,0,0,0,0
3.546,3.5625,0,0,0,0,0
3.547,4.0625,0,0,0,0,0
3.548,4.8125,0,0,0,0,0
3.549,5,0,0,0,0,0
3.55,4.5625,0,0,0,0,0
3.551,3.4375,0,0,0,0,0
3.552,2.1875,0,0,0,0,0
3.553,1.25,0,0,0,0,0
3.554,1.5625,0,0,0,0,0
3.555,1.5625,0,0,0,0,0
3.556,1.25,0,0,0,0,0
3.557,1.25,0,0,0,0,0
3.558,0.9375,0,0,0,0,0
3.559,0.9375,0,0,0,0,0
3.56,1.5625,0,0,0,0,0
3.561,0.9375,0,0,0,0,0
3.562,1.375,0,0,0,0,0
3.563,1.875,0,0,0,0,0
3.564,2.1875,0,0,0,0,0
3.565,2.5,0,0,0,0,0
3.566,2.375,0,0,0,0,0
3.567,2.8125,0,0,0,0,0
3.568,2.6875,0,0,0,0,0
3.569,2.5,0,0,0,0,1
3.57,2.5,0,0,0,0,0
3.571,2.5,0,0,0,0,0
3.572,2.6875,0,0,0,0,0
3.573,3.125,0,0,0,0,0
3.574,3.125,0,0,0,0,0
3.575,3.4375,0,0,0,0,0
3.576,4.0625,0,0,0,0,0
3.577,4.375,0,0,0,0,0
3.578,4.6875,0,0,0,0,0
3.579,4.6875,0,0,0,0,0
3.58,4.375,0,0,0,0,0
3.581,3.75,0,0,0,0,0
3.582,2.0625,0,0,0,0,0
3.583,0.9375,0,0,0,0,0
3.584,0.3125,0,0,0,0,0
3.585,0.625,0,0,0,0,0
3.586,0.3125,0,0,0,0,0
3.587,0.3125,0,0,0,0,0
3.588,1.375,0,0,0,0,0
3.589,2.1875,0,0,0,0,0
3.59,2.1875,0,0,0,0,0
3.591,2.5,0,0,0,0,0
3.592,2.0625,0,0,0,0,0
3.593,1.5625,0,0,0,0,0
3.594,1.5625,0,0,0,0,0
3.595,1.5625,0,0,0,0,0
3.596,2,0,0,0,0,0
3.597,1.875,0,0,0,0,0
3.598,2.625,0,0,0,0,0
3.599,2.8125,0,0,0,0,0
3.6,3.5625,0,0,0,0,0
3.601,4.0625,0,0,0,0,0
3.602,3.75,0,0,0,0,0
3.603,3.75,0,0,0,0,0
3.604,3.625,0,0,0,0,0
3.605,2.8125,0,0,0,0,0
3.606,2.8125,0,0,0,0,0
3.607,2.5,0,0,0,0,0
3.608,3.125,0,0,0,0,0
3.609,4.0625,0,0,0,0,0
3.61,3.9375,0,0,0,0,0
3.611,3.4375,0,0,0,0,0
3.612,2.6875,0,0,0,0,0
3.613,2.1875,0,0,0,0,0
3.614,1.75,0,0,0,0,0
3.615,2.1875,0,0,0,0,0
3.616,2.1875,0,0,0,0,0
3.617,1.875,0,0,0,0,0
3.618,1.25,0,0,0,0,0
3.619,1.25,0,0,0,0,0
3.62,1.25,0,0,0,0,0
3.621,1.25,0,0,0,0,0
3.622,1.875,0,0,0,0,0
3.623,1.875,0,0,0,0,0
3.624,1.5625,0,0,0,0,0
3.625,1.5625,0,0,0,0,0
3.626,2.625,0,0,0,0,0
3.627,2.8125,0,0,0,0,0
3.628,2.375,0,0,0,0,0
3.629,2.8125,0,0,0,0,0
3.63,2.9375,0,0,0,0,0
3.631,3.4375,0,0,0,0,0
3.632,3.625,0,0,0,0,0
3.633,3.4375,0,0,0,0,0
3.634,3.5625,0,0,0,0,0
3.635,3.75,0,0,0,0,0
3.636,3,0,0,0,0,0
3.637,2.1875,0,0,0,0,0
3.638,1.5625,0,0,0,0,0
3.639,0.625,0,0,0,0,0
3.64,1.25,0,0,0,0,0
3.641,1.875,0,0,0,0,0
3.642,2.1875,0,0,0,0,0
3.643,2.5,0,0,0,0,0
3.644,2.0625,0,0,0,0,0
3.645,1.25,0,0,0,0,0
3.646,0.8125,0,0,0,0,0
3.647,0.3125,0,0,0,0,0
3.648,1.5625,0,0,0,0,0
3.649,2.5,0,0,0,0,0
3.65,2.5,0,0,0,0,0
3.651,2.5,0,0,0,0,0
3.652,2.3125,0,0,0,0,0
3.653,2.5,0,0,0,0,0
3.654,2.9375,0,0,0,0,0
3.655,3.4375,0,0,0,0,0
3.656,3.75,0,0,0,0,0
3.657,3.4375,0,0,0,0,0
3.658,2.6875,0,0,0,0,0
3.659,1.5625,0,0,0,0,0
3.66,0.8125,0,0,0,0,0
3.661,0.625,0,0,0,0,0
3.662,0.5,0,0,0,0,0
3.663,0.3125,0,0,0,0,0
3.664,1.125,0,0,0,0,0
3.665,0.9375,0,0,0,0,0
3.666,0.9375,0,0,0,0,0
3.667,0.9375,0,0,0,0,0
3.668,2,0,0,0,0,0
3.669,3.125,0,0,0,0,0
3.67,3,0,0,0,0,0
3.671,2.8125,0,0,0,0,0
3.672,2.6875,0,0,0,0,0
3.673,2.1875,0,0,0,0,0
3.674,2.3125,0,0,0,0,0
3.675,2.8125,0,0,0,0,0
3.676,2.5,0,0,0,0,0
3.677,2.5,0,0,0,0,0
3.678,2.375,0,0,0,0,0
3.679,2.5,0,0,0,0,0
3.68,2.8125,0,0,0,0,0
3.681,3.4375,0,0,0,0,0
3.682,3.4375,0,0,0,0,0
3.683,3.125,0,0,0,0,0
3.684,2.8125,0,0,0,0,0
3.685,2.8125,0,0,0,0,0
3.686,3.125,0,0,0,0,0
3.687,2.8125,0,0,0,0,0
3.688,2.625,0,0,0,0,0
3.689,2.8125,0,0,0,0,0
3.69,2.8125,0,0,0,0,0
3.691,3.4375,0,0,0,0,0
3.692,3.875,0,0,0,0,0
3.693,4.375,0,0,0,0,0
3.694,4.1875,0,0,0,0,0
3.695,4.6875,0,0,0,0,0
3.696,4.5625,0,0,0,0,0
3.697,4.375,0,0,0,0,0
3.698,3.75,0,0,0,0,0
3.699,2.8125,0,0,0,0,0
3.7,2.6875,0,0,0,0,0
3.701,1.5625,0,0,0,0,0
3.702,1.25,0,0,0,0,0
3.703,1.25,0,0,0,0,0
3.704,1.125,0,0,0,0,0
3.705,0.625,0,0,0,0,0
3.706,0.9375,0,0,0,0,0
3.707,1.25,0,0,0,0,0
3.708,0.8125,0,0,0,0,0
3.709,0.9375,0,0,0,0,0
3.71,0.5,0,0,0,0,0
3.711,0.3125,0,0,0,0,0
3.712,1.375,0,0,0,0,0
3.713,1.875,0,0,0,0,0
3.714,2.5,0,0,0,0,0
3.715,2.5,0,0,0,0,0
3.716,2.5,0,0,0,0,0
3.717,2.1875,0,0,0,0,0
3.718,2.625,0,0,0,0,0
3.719,2.5,0,0,0,0,0
3.72,2.3125,0,0,0,0,0
3.721,2.5,0,0,0,0,0
3.722,2.6875,0,0,0,0,0
3.723,2.8125,0,0,0,0,0
3.724,2.6875,0,0,0,0,0
3.725,2.8125,0,0,0,0,0
3.726,2.8125,0,0,0,0,0
3.727,2.8125,0,0,0,0,0
3.728,3,0,0,0,0,0
3.729,3.125,0,0,0,0,0
3.73,2.9375,0,0,0,0,0
3.731,2.8125,0,0,0,0,0
3.732,2.8125,0,0,0,0,0
3.733,3.125,0,0,0,0,0
3.734,3.4375,0,0,0,0,0
3.735,3.75,0,0,0,0,0
3.736,3.75,0,0,0,0,0
3.737,3.125,0,0,0,0,0
3.738,4.1875,0,0,0,0,0
3.739,5,0,0,0,0,0
3.74,4.6875,0,0,0,0,0
3.741,5.3125,0,0,0,0,0
3.742,5.3125,0,0,0,0,0
3.743,5.3125,0,0,0,0,0
3.744,5.3125,0,0,0,0,0
3.745,5.3125,0,0,0,0,0
3.746,5.9375,0,0,0,0,0
3.747,7.1875,0,0,0,0,0
3.748,7.5,0,0,0,0,0
3.749,7.1875,0,0,0,0,0
3.75,4.6875,0,0,0,0,0
3.751,2.5,0,0,0,0,0
3.752,0.625,0,0,0,0,0
3.753,-1.5625,0,0,0,0,0
3.754,-1.6875,0,0,0,0,0
3.755,-2.5,0,0,0,0,0
3.756,-0.625,0,0,0,0,0
3.757,0.625,0,0,0,0,0
3.758,0.3125,0,0,0,0,0
3.759,0.625,0,0,0,0,0
3.76,1.0625,0,0,0,0,0
3.761,1.875,0,0,0,0,0
3.762,2.1875,0,0,0,0,0
3.763,2.5,0,0,0,0,0
3.764,2.375,0,0,0,0,0
3.765,1.875,0,0,0,0,0
3.766,1.6875,0,0,0,0,0
3.767,1.5625,0,0,0,0,0
3.768,1.875,0,0,0,0,0
3.769,1.875,0,0,0,0,0
3.77,1.75,0,0,0,0,0
3.771,1.25,0,0,0,0,0
3.772,1.6875,0,0,0,0,0
3.773,1.5625,0,0,0,0,0
3.774,1.375,0,0,0,0,0
3.775,1.875,0,0,0,0,0
3.776,2.1875,0,0,0,0,0
3.777,2.1875,0,0,0,0,0
3.778,2.1875,0,0,0,0,0
3.779,2.5,0,0,0,0,0
3.78,2.8125,0,0,0,0,0
3.781,2.8125,0,0,0,0,0
3.782,2.5,0,0,0,0,0
3.783,2.8125,0,0,0,0,0
3.784,2.8125,0,0,0,0,0
3.785,1.875,0,0,0,0,0
3.786,1.5625,0,0,0,0,0
3.787,1.5625,0,0,0,0,0
3.788,2.3125,0,0,0,0,0
3.789,2.8125,0,0,0,0,0
3.79,2.9375,0,0,0,0,0
3.791,3.75,0,0,0,0,0
3.792,4.0625,0,0,0,0,0
3.793,3.75,0,0,0,0,0
3.794,3.9375,0,0,0,0,0
3.795,3.75,0,0,0,0,0
3.796,3.875,0,0,0,0,0
3.797,3.75,0,0,0,0,0
3.798,2.8125,0,0,0,0,0
3.799,2.1875,0,0,0,0,0
3.8,2.5,0,0,0,0,0
3.801,2.8125,0,0,0,0,0
3.802,3.125,0,0,0,0,0
3.803,3.75,0,0,0,0,0
3.804,3.625,0,0,0,0,0
3.805,3.75,0,0,0,0,0
3.806,3.5625,0,0,0,0,0
3.807,3.125,0,0,0,0,0
3.808,4.1875,0,0,0,0,0
3.809,5,0,0,0,0,0
3.81,5.75,0,0,0,0,0
3.811,5.3125,0,0,0,0,0
3.812,5.3125,0,0,0,0,0
3.813,5.3125,0,0,0,0,0
3.814,5,0,0,0,0,0
3.815,5.625,0,0,0,0,0
3.816,4.875,0,0,0,0,0
3.817,4.375,0,0,0,0,0
3.818,2.8125,0,0,0,0,0
3.819,1.25,0,0,0,0,0
3.82,0.9375,0,0,0,0,0
3.821,1.25,0,0,0,0,0
3.822,1.25,0,0,0,0,0
3.823,0.9375,0,0,0,0,0
3.824,1.0625,0,0,0,0,0
3.825,1.5625,0,0,0,0,0
3.826,1.25,0,0,0,0,0
3.827,0.9375,0,0,0,0,0
3.828,1.375,0,0,0,0,0
3.829,2.1875,0,0,0,0,0
3.83,2,0,0,0,0,0
3.831,2.1875,0,0,0,0,0
3.832,2,0,0,0,0,0
3.833,2.1875,0,0,0,0,0
3.834,2.1875,0,0,0,0,0
3.835,2.1875,0,0,0,0,0
3.836,2.9375,0,0,0,0,0
3.837,2.8125,0,0,0,0,0
3.838,2.375,0,0,0,0,0
3.839,2.5,0,0,0,0,0
3.84,3.25,0,0,0,0,0
3.841,3.75,0,0,0,0,0
3.842,3.4375,0,0,0,0,0
3.843,3.4375,0,0,0,0,0
3.844,3.3125,0,0,0,0,0
3.845,3.125,0,0,0,0,0
3.846,3,0,0,0,0,0
3.847,2.8125,0,0,0,0,0
3.848,3.125,0,0,0,0,0
3.849,3.125,0,0,0,0,0
3.85,2.8125,0,0,0,0,0
3.851,2.5,0,0,0,0,0
3.852,2.1875,0,0,0,0,0
3.853,2.5,0,0,0,0,0
3.854,3.125,0,0,0,0,0
3.855,2.8125,0,0,0,0,0
3.856,3.125,0,0,0,0,0
3.857,2.8125,0,0,0,0,0
3.858,3,0,0,0,0,0
3.859,3.125,0,0,0,0,0
3.86,3.4375,0,0,0,0,0
3.861,3.4375,0,0,0,0,0
3.862,4.6875,0,0,0,0,0
3.863,5.625,0,0,0,0,0
3.864,5.75,0,0,0,0,0
3.865,5.625,0,0,0,0,0
3.866,5.4375,0,0,0,0,0
3.867,6.25,0,0,0,0,0
3.868,6.5625,0,0,0,0,0
3.869,6.25,0,0,0,0,0
3.87,6.25,0,0,0,0,0
3.871,6.5625,0,0,0,0,0
3.872,6.875,0,0,0,0,0
3.873,7.1875,0,0,0,0,0
3.874,6.75,0,0,0,0,0
3.875,6.5625,0,0,0,0,0
3.876,7.3125,0,0,0,0,0
3.877,7.1875,0,0,0,0,0
3.878,6.4375,0,0,0,0,0
3.879,5.625,0,0,0,0,0
3.88,5.9375,0,0,0,0,0
3.881,5.625,0,0,0,0,0
3.882,5,0,0,0,0,0
3.883,4.0625,0,0,0,0,0
3.884,3.625,0,0,0,0,0
3.885,3.125,0,0,0,0,0
3.886,2.375,0,0,0,0,0
3.887,1.5625,0,0,0,0,0
3.888,2.1875,0,0,0,0,0
3.889,2.1875,0,0,0,0,0
3.89,2.625,0,0,0,0,0
3.891,3.125,0,0,0,0,0
3.892,4.1875,0,0,0,0,0
3.893,5,0,0,0,0,0
3.894,4.875,0,0,0,0,0
3.895,4.6875,0,0,0,0,0
3.896,4.5625,0,0,0,0,0
3.897,4.0625,0,0,0,0,0
3.898,4.1875,0,0,0,0,0
3.899,5,0,0,0,0,0
3.9,4.8125,0,0,0,0,0
3.901,5.3125,0,0,0,0,0
3.902,6.0625,0,0,0,0,0
3.903,6.25,0,0,0,0,0
3.904,5.9375,0,0,0,0,0
3.905,5.9375,0,0,0,0,0
3.906,5.9375,0,0,0,0,0
3.907,6.25,0,0,0,0,0
3.908,5.9375,0,0,0,0,0
3.909,5.9375,0,0,0,0,0
3.91,6.0625,0,0,0,0,0
3.911,6.25,0,0,0,0,0
3.912,5.8125,0,0,0,0,0
3.913,6.5625,0,0,0,0,0
3.914,6.5625,0,0,0,0,0
3.915,6.25,0,0,0,0,0
3.916,5,0,0,0,0,0
3.917,4.375,0,0,0,0,0
3.918,4.6875,0,0,0,0,0
3.919,5.3125,0,0,0,0,0
3.92,6.0625,0,0,0,0,0
3.921,6.25,0,0,0,0,0
3.922,6.6875,0,0,0,0,0
3.923,7.5,0,0,0,0,0
3.924,7.1875,0,0,0,0,0
3.925,7.5,0,0,0,0,0
3.926,8.25,0,0,0,0,0
3.927,8.4375,0,0,0,0,0
3.928,8.4375,0,0,0,0,0
3.929,7.8125,0,0,0,0,0
3.93,6.4375,0,0,0,0,0
3.931,5.3125,0,0,0,0,0
3.932,4.875,0,0,0,0,0
3.933,4.0625,0,0,0,0,0
3.934,4.6875,0,0,0,0,0
3.935,5.3125,0,0,0,0,0
3.936,5.3125,0,0,0,0,0
3.937,5,0,0,0,0,0
3.938,5,0,0,0,0,0
3.939,5,0,0,0,0,0
3.94,4.25,0,0,0,0,0
3.941,4.6875,0,0,0,0,0
3.942,5,0,0,0,0,0
3.943,5,0,0,0,0,0
3.944,4.375,0,0,0,0,0
3.945,4.375,0,0,0,0,0
3.946,4.375,0,0,0,0,0
3.947,4.6875,0,0,0,0,0
3.948,5.3125,0,0,0,0,0
3.949,5.3125,0,0,0,0,0
3.95,5,0,0,0,0,0
3.951,4.6875,0,0,0,0,0
3.952,4.375,0,0,0,0,0
3.953,4.375,0,0,0,0,0
3.954,5,0,0,0,0,0
3.955,5.3125,0,0,0,0,0
3.956,5.3125,0,0,0,0,0
3.957,5,0,0,0,0,0
3.958,4.6875,0,0,0,0,0
3.959,4.6875,0,0,0,0,0
3.96,5.125,0,0,0,0,0
3.961,5.625,0,0,0,0,0
3.962,5.3125,0,0,0,0,0
3.963,5.625,0,0,0,0,0
3.964,5,0,0,0,0,0
3.965,4.375,0,0,0,0,0
3.966,4.1875,0,0,0,0,0
3.967,4.0625,0,0,0,0,0
3.968,3.875,0,0,0,0,0
3.969,4.0625,0,0,0,0,0
3.97,3.125,0,0,0,0,0
3.971,2.1875,0,0,0,0,0
3.972,2.3125,0,0,0,0,0
3.973,2.5,0,0,0,0,0
3.974,1.75,0,0,0,0,0
3.975,1.875,0,0,0,0,0
3.976,1.5625,0,0,0,0,0
3.977,1.25,0,0,0,0,0
3.978,1.0625,0,0,0,0,0
3.979,1.25,0,0,0,0,0
3.98,2.5,0,0,0,0,0
3.981,3.4375,0,0,0,0,0
3.982,3.25,0,0,0,0,0
3.983,3.125,0,0,0,0,0
3.984,3,0,0,0,0,0
3.985,3.125,0,0,0,0,0
3.986,3.5625,0,0,0,0,0
3.987,5,0,0,0,0,0
3.988,5.75,0,0,0,0,0
3.989,5.3125,0,0,0,0,0
3.99,4.875,0,0,0,0,0
3.991,4.6875,0,0,0,0,0
3.992,4.0625,0,0,0,0,0
3.993,3.75,0,0,0,0,0
3.994,3.875,0,0,0,0,0
3.995,4.0625,0,0,0,0,0
3.996,4.5,0,0,0,0,0
3.997,4.6875,0,0,0,0,0
3.998,4.5625,0,0,0,0,0
3.999,4.0625,0,0,0,0,0
4,4.25,0,0,0,0,0
4.001,3.4375,0,0,0,0,0
4.002,2.6875,0,0,0,0,0
4.003,2.8125,0,0,0,0,0
4.004,2.0625,0,0,0,0,0
4.005,1.5625,0,0,0,0,0
4.006,0.8125,0,0,0,0,0
4.007,0,0,0,0,0,0
4.008,0.3125,0,0,0,0,0
4.009,0.3125,0,0,0,0,0
4.01,0.4375,0,0,0,0,0
4.011,0.625,0,0,0,0,0
4.012,0.625,0,0,0,0,0
4.013,0,0,0,0,0,0
4.014,0.125,0,0,0,0,0
4.015,0.3125,0,0,0,0,0
4.016,0.625,0,0,0,0,0
4.017,0.3125,0,0,0,0,0
4.018,0.625,0,0,0,0,0
4.019,0.625,0,0,0,0,0
4.02,1.5625,0,0,0,0,0
4.021,2.5,0,0,0,0,0
4.022,2.5,0,0,0,0,0
4.023,2.8125,0,0,0,0,0
4.024,1.4375,0,0,0,0,0
4.025,0.3125,0,0,0,0,0
4.026,1.25,0,0,0,0,0
4.027,2.8125,0,0,0,0,0
4.028,2.5,0,0,0,0,0
4.029,2.8125,0,0,0,0,0
4.03,4.375,0,0,0,0,0
4.031,5.3125,0,0,0,0,0
4.032,5.125,0,0,0,0,0
4.033,5.625,0,0,0,0,0
4.034,4.5625,0,0,0,0,0
4.035,3.75,0,0,0,0,0
4.036,3.125,0,0,0,0,0
4.037,2.1875,0,0,0,0,0
4.038,2.0625,0,0,0,0,0
4.039,1.875,1,0,0,0,0
4.04,2.0625,0,0,0,0,0
4.041,2.1875,0,0,0,0,0
4.042,2.3125,0,0,0,0,0
4.043,2.5,0,0,0,0,0
4.044,2.625,0,0,0,0,0
4.045,2.8125,0,0,0,0,0
4.046,3.4375,0,0,0,0,0
4.047,3.125,0,0,0,0,0
4.048,2.8125,0,0,0,0,0
4.049,3.75,0,0,0,0,0
4.05,4.0625,0,0,0,0,0
4.051,4.375,0,0,0,0,0
4.052,4.25,0,0,0,0,0
4.053,4.6875,0,0,0,0,0
4.054,4.8125,0,0,0,0,0
4.055,5,0,0,0,0,0
4.056,5.625,0,0,0,0,0
4.057,5.3125,0,0,0,0,0
4.058,5.9375,0,0,0,0,0
4.059,6.25,0,0,0,0,0
4.06,7.5,0,0,0,0,0
4.061,9.0625,0,0,0,0,0
4.062,9.6875,0,0,0,0,0
4.063,10.313,0,0,0,0,0
4.064,10.938,0,0,0,0,0
4.065,11.875,0,0,0,0,0
4.066,12.813,0,0,0,0,0
4.067,14.063,0,0,0,0,0
4.068,16.563,0,0,0,0,0
4.069,19.375,0,0,0,0,0
4.07,20.938,0,0,0,0,0
4.071,22.5,0,0,0,0,0
4.072,23,0,0,0,0,0
4.073,24.375,0,0,0,0,0
4.074,27.188,0,0,0,0,0
4.075,30.625,0,0,0,0,0
4.076,32.813,0,0,0,0,0
4.077,35.938,0,0,0,0,0
4.078,38.125,0,0,0,0,0
4.079,40.313,0,0,0,0,0
4.08,42.813,0,0,0,0,0
4.081,46.25,0,0,0,0,0
4.082,47.813,0,0,0,0,0
4.083,48.75,0,0,0,0,0
4.084,50.813,0,0,0,0,0
4.085,52.813,0,0,0,0,0
4.086,56.063,0,0,0,0,0
4.087,58.438,0,0,0,0,0
4.088,60.938,0,0,0,0,0
4.089,63.125,0,0,0,0,0
4.09,63.75,0,0,0,0,0
4.091,64.063,0,0,0,0,0
4.092,64.563,0,0,0,0,0
4.093,65,0,0,0,0,0
4.094,65.188,0,1,0,0,0
4.095,65.313,0,0,0,0,0
4.096,65.313,0,0,0,0,0
4.097,64.375,0,0,0,0,0
4.098,63.438,0,0,0,0,0
4.099,62.188,0,0,0,0,0
4.1,60.5,0,0,0,0,0
4.101,59.375,0,0,0,0,0
4.102,58,0,0,0,0,0
4.103,56.563,0,0,0,0,0
4.104,54.25,0,0,0,0,0
4.105,50.625,0,0,0,0,0
4.106,45.313,0,0,0,0,0
4.107,40,0,0,0,0,0
4.108,34.375,0,0,0,0,0
4.109,28.75,0,0,0,0,0
4.11,24.563,0,0,0,0,0
4.111,20.313,0,0,0,0,0
4.112,16.688,0,0,0,0,0
4.113,14.063,0,0,0,0,0
4.114,13.875,0,0,0,0,0
4.115,14.375,0,0,0,0,0
4.116,13.563,0,0,0,0,0
4.117,12.188,0,0,0,0,0
4.118,9.5625,0,0,0,0,0
4.119,7.5,0,0,0,0,0
4.12,7.1875,0,0,0,0,0
4.121,6.5625,0,0,0,0,0
4.122,6.375,0,0,0,0,0
4.123,5.9375,0,0,0,0,0
4.124,4.25,0,0,0,0,0
4.125,4.0625,0,0,0,0,0
4.126,3.625,0,0,0,0,0
4.127,3.125,0,0,0,0,0
4.128,3,0,0,0,0,0
4.129,2.1875,0,0,0,0,0
4.13,1.875,0,0,0,0,0
4.131,0.9375,0,0,0,0,0
4.132,0.75,0,0,0,0,0
4.133,0.3125,0,0,0,0,0
4.134,-0.3125,0,0,1,0,0
4.135,0,0,0,0,0,0
4.136,-0.4375,0,0,0,0,0
4.137,-1.25,0,0,0,0,0
4.138,-0.625,0,0,0,0,0
4.139,-0.3125,0,0,0,0,0
4.14,0,0,0,0,0,0
4.141,0.625,0,0,0,0,0
4.142,0.1875,0,0,0,0,0
4.143,0.3125,0,0,0,0,0
4.144,0.3125,0,0,0,0,0
4.145,0.3125,0,0,0,0,0
4.146,0.125,0,0,0,0,0
4.147,0.625,0,0,0,0,0
4.148,0.8125,0,0,0,0,0
4.149,0.3125,0,0,0,0,0
4.15,1.25,0,0,0,0,0
4.151,1.25,0,0,0,0,0
4.152,0.9375,0,0,0,0,0
4.153,0.625,0,0,0,0,0
4.154,0.9375,0,0,0,0,0
4.155,1.875,0,0,0,0,0
4.156,2.1875,0,0,0,0,0
4.157,2.1875,0,0,0,0,0
4.158,1.25,0,0,0,0,0
4.159,0.9375,0,0,0,0,0
4.16,1.25,0,0,0,0,0
4.161,0.9375,0,0,0,0,0
4.162,1.6875,0,0,0,0,0
4.163,1.5625,0,0,0,0,0
4.164,1.25,0,0,0,0,0
4.165,2.1875,0,0,0,0,0
4.166,2.625,0,0,0,0,0
4.167,2.8125,0,0,0,0,0
4.168,2.8125,0,0,0,0,0
4.169,2.8125,0,0,0,0,0
4.17,3.25,0,0,0,0,0
4.171,4.0625,0,0,0,0,0
4.172,4.5,0,0,0,0,0
4.173,5,0,0,0,0,0
4.174,5.625,0,0,0,0,0
4.175,5.9375,0,0,0,0,0
4.176,5.9375,0,0,0,0,0
4.177,5.9375,0,0,0,0,0
4.178,5.9375,0,0,0,0,0
4.179,5.9375,0,0,0,0,0
4.18,5,0,0,0,0,0
4.181,3.125,0,0,0,0,0
4.182,2.0625,0,0,0,0,0
4.183,0.9375,0,0,0,0,0
4.184,-0.625,0,0,0,0,0
4.185,-1.875,0,0,0,0,0
4.186,-2.625,0,0,0,0,0
4.187,-3.4375,0,0,0,0,0
4.188,-2.9375,0,0,0,0,0
4.189,-2.5,0,0,0,0,0
4.19,-2.5,0,0,0,0,0
4.191,-2.5,0,0,0,0,0
4.192,-2.375,0,0,0,0,0
4.193,-2.1875,0,0,0,0,0
4.194,-1.875,0,0,0,0,0
4.195,-1.5625,0,0,0,0,0
4.196,-1.5625,0,0,0,0,0
4.197,-1.5625,0,0,0,0,0
4.198,-0.625,0,0,0,0,0
4.199,0,0,0,0,0,0
4.2,0,0,0,0,0,0
4.201,0.625,0,0,0,0,0
4.202,0.625,0,0,0,0,0
4.203,0.625,0,0,0,0,0
4.204,0.4375,0,0,0,0,0
4.205,0.625,0,0,0,0,0
4.206,0.4375,0,0,0,0,0
4.207,0.9375,0,0,0,0,0
4.208,1.0625,0,0,0,0,0
4.209,0.9375,0,0,0,0,0
4.21,0.9375,0,0,0,0,0
4.211,1.25,0,0,0,0,0
4.212,0.8125,0,0,0,0,0
4.213,0.9375,0,0,0,0,0
4.214,1.4375,0,0,0,0,0
4.215,0.625,0,0,0,0,0
4.216,0.3125,0,0,0,0,0
4.217,-0.3125,0,0,0,0,0
4.218,-0.1875,0,0,0,0,0
4.219,0,0,0,0,0,0
4.22,0.625,0,0,0,0,0
4.221,0.9375,0,0,0,0,0
4.222,0.5,0,0,0,0,0
4.223,0.625,0,0,0,0,0
4.224,0.9375,0,0,0,0,0
4.225,0.625,0,0,0,0,0
4.226,0.8125,0,0,0,0,0
4.227,0.625,0,0,0,0,0
4.228,0.5,0,0,0,0,0
4.229,0.625,0,0,0,0,0
4.23,0.625,0,0,0,0,0
4.231,0.9375,0,0,0,0,0
4.232,0.625,0,0,0,0,0
4.233,-0.3125,0,0,0,0,0
4.234,0.3125,0,0,0,0,0
4.235,1.25,0,0,0,0,0
4.236,1.375,0,0,0,0,0
4.237,1.25,0,0,0,0,0
4.238,0.5,0,0,0,0,0
4.239,0.625,0,0,0,0,0
4.24,1.375,0,0,0,0,0
4.241,1.5625,0,0,0,0,0
4.242,1.5625,0,0,0,0,0
4.243,1.875,0,0,0,0,0
4.244,2,0,0,0,0,0
4.245,2.5,0,0,0,0,0
4.246,3.125,0,0,0,0,0
4.247,3.75,0,0,0,0,0
4.248,3.625,0,0,0,0,0
4.249,3.125,0,0,0,0,0
4.25,2.5,0,0,0,0,0
4.251,1.25,0,0,0,0,0
4.252,2.1875,0,0,0,0,0
4.253,1.25,0,0,0,0,0
4.254,0.625,0,0,0,0,0
4.255,0.9375,0,0,0,0,0
4.256,0.9375,0,0,0,0,0
4.257,1.25,0,0,0,0,0
4.258,1.6875,0,0,0,0,0
4.259,1.25,0,0,0,0,0
4.26,1.0625,0,0,0,0,0
4.261,0.9375,0,0,0,0,0
4.262,1.25,0,0,0,0,0
4.263,1.25,0,0,0,0,0
4.264,0.1875,0,0,0,0,0
4.265,-0.3125,0,0,0,0,0
4.266,-0.625,0,0,0,0,0
4.267,-0.3125,0,0,0,0,0
4.268,1.0625,0,0,0,0,0
4.269,2.5,0,0,0,0,0
4.27,2.9375,0,0,0,0,0
4.271,3.125,0,0,0,0,0
4.272,2.5,0,0,0,0,0
4.273,2.5,0,0,0,0,0
4.274,2.5,0,0,0,0,0
4.275,2.1875,0,0,0,0,0
4.276,2.0625,0,0,0,0,0
4.277,1.5625,0,0,0,0,0
4.278,0.625,0,0,0,0,0
4.279,0,0,0,0,0,0
4.28,0.4375,0,0,0,0,0
4.281,0.9375,0,0,0,0,0
4.282,1.0625,0,0,0,0,0
4.283,2.1875,0,0,0,0,0
4.284,1.75,0,0,0,0,0
4.285,2.8125,0,0,0,0,0
4.286,2.1875,0,0,0,0,0
4.287,0.9375,0,0,0,0,0
4.288,0,0,0,0,0,0
4.289,-1.5625,0,0,0,0,0
4.29,-0.9375,0,0,0,0,0
4.291,-1.5625,0,0,0,0,0
4.292,-0.5,0,0,0,0,0
4.293,-0.3125,0,0,0,0,0
4.294,0,0,0,0,0,0
4.295,0.9375,0,0,0,0,0
4.296,0.9375,0,0,0,0,0
4.297,0.625,0,0,0,0,0
4.298,0.625,0,0,0,0,0
4.299,0.625,0,0,0,0,0
4.3,0.9375,0,0,0,0,0
4.301,0.9375,0,0,0,0,0
4.302,1.125,0,0,0,0,0
4.303,0.9375,0,0,0,0,0
4.304,0,0,0,0,0,0
4.305,0,0,0,0,0,0
4.306,0,0,0,0,0,0
4.307,-0.3125,0,0,0,0,0
4.308,0.4375,0,0,0,0,0
4.309,0,0,0,0,0,0
4.31,0,0,0,0,0,0
4.311,0,0,0,0,0,0
4.312,0,0,0,0,0,0
4.313,0,0,0,0,0,0
4.314,0.125,0,0,0,0,0
4.315,0.3125,0,0,0,0,0
4.316,-0.125,0,0,0,0,0
4.317,-0.625,0,0,0,0,0
4.318,0,0,0,0,0,0
4.319,0,0,0,0,0,0
4.32,0.625,0,0,0,0,0
4.321,0.9375,0,0,0,0,0
4.322,1.25,0,0,0,0,0
4.323,1.875,0,0,0,0,0
4.324,1.5625,0,0,0,0,0
4.325,1.5625,0,0,0,0,0
4.326,1.25,0,0,0,0,0
4.327,1.25,0,0,0,0,0
4.328,1.5625,0,0,0,0,0
4.329,1.5625,0,0,0,0,0
4.33,1.6875,0,0,0,0,0
4.331,1.5625,0,0,0,0,0
4.332,2.8125,0,0,0,0,0
4.333,3.125,0,0,0,0,0
4.334,3.125,0,0,0,0,0
4.335,3.4375,0,0,0,0,0
4.336,3.625,0,0,0,0,0
4.337,3.4375,0,0,0,0,0
4.338,3.125,0,0,0,0,0
4.339,3.4375,0,0,0,0,0
4.34,3.5625,0,0,0,0,0
4.341,3.75,0,0,0,0,0
4.342,3,0,0,0,0,0
4.343,3.125,0,0,0,0,0
4.344,1.75,0,0,0,0,0
4.345,0.625,0,0,0,0,0
4.346,1.0625,0,0,0,0,0
4.347,0.3125,0,0,0,0,0
4.348,0.625,0,0,0,0,0
4.349,1.25,0,0,0,0,0
4.35,1.375,0,0,0,0,0
4.351,1.875,0,0,0,0,0
4.352,1.875,0,0,0,0,0
4.353,2.5,0,0,0,0,0
4.354,2.5,0,0,0,0,0
4.355,2.5,0,0,0,0,0
4.356,1.875,0,0,0,0,0
4.357,1.5625,0,0,0,0,0
4.358,1.4375,0,0,0,0,0
4.359,0.9375,0,0,0,0,0
4.36,0.5,0,0,0,0,0
4.361,0.3125,0,0,0,0,0
4.362,1.5625,0,0,0,0,0
4.363,2.1875,0,0,0,0,0
4.364,2.3125,0,0,0,0,0
4.365,3.125,0,0,0,0,0
4.366,3.4375,0,0,0,0,0
4.367,3.75,0,0,0,0,0
4.368,3.9375,0,0,0,0,0
4.369,3.75,0,0,0,0,0
4.37,2.8125,0,0,0,0,0
4.371,2.1875,0,0,0,0,0
4.372,2.1875,0,0,0,0,0
4.373,1.5625,0,0,0,0,0
4.374,0.8125,0,0,0,0,0
4.375,0.3125,0,0,0,0,0
4.376,0.4375,0,0,0,0,0
4.377,0.625,0,0,0,0,0
4.378,0.4375,0,0,0,0,0
4.379,1.25,0,0,0,0,0
4.38,1.125,0,0,0,0,0
4.381,0.9375,0,0,0,0,0
4.382,0.75,0,0,0,0,0
4.383,1.25,0,0,0,0,0
4.384,1.0625,0,0,0,0,0
4.385,0.9375,0,0,0,0,0
4.386,0.8125,0,0,0,0,0
4.387,1.25,0,0,0,0,0
4.388,1.5625,0,0,0,0,0
4.389,1.875,0,0,0,0,0
4.39,1.875,0,0,0,0,0
4.391,1.5625,0,0,0,0,0
4.392,1.375,0,0,0,0,0
4.393,1.25,0,0,0,0,0
4.394,2.3125,0,0,0,0,0
4.395,4.0625,0,0,0,0,0
4.396,3.625,0,0,0,0,0
4.397,2.8125,0,0,0,0,0
4.398,1.875,0,0,0,0,0
4.399,1.25,0,0,0,0,0
4.4,0.8125,0,0,0,0,0
4.401,0.9375,0,0,0,0,0
4.402,1.0625,0,0,0,0,0
4.403,1.5625,0,0,0,0,0
4.404,1.6875,0,0,0,0,0
4.405,1.875,0,0,0,0,0
4.406,1.875,0,0,0,0,0
4.407,1.875,0,0,0,0,0
4.408,2.1875,0,0,0,0,0
4.409,1.875,0,0,0,0,0
4.41,1.6875,0,0,0,0,0
4.411,1.875,0,0,0,0,0
4.412,1.5625,0,0,0,0,0
4.413,1.5625,0,0,0,0,0
4.414,1.75,0,0,0,0,0
4.415,1.5625,0,0,0,0,0
4.416,1.375,0,0,0,0,0
4.417,0.9375,0,0,0,0,0
4.418,1.0625,0,0,0,0,0
4.419,1.25,0,0,0,0,0
4.42,0.9375,0,0,0,0,0
4.421,1.25,0,0,0,0,0
4.422,1.75,0,0,0,0,0
4.423,1.25,0,0,0,0,0
4.424,1.0625,0,0,0,0,0
4.425,1.25,0,0,0,0,0
4.426,1.5625,0,0,0,0,0
4.427,2.1875,0,0,0,0,0
4.428,2.0625,0,0,0,0,0
4.429,2.1875,0,0,0,0,0
4.43,2.3125,0,0,0,0,0
4.431,2.5,0,0,0,0,0
4.432,2.3125,0,0,0,0,0
4.433,2.5,0,0,0,0,0
4.434,2.8125,0,0,0,0,0
4.435,2.8125,0,0,0,0,0
4.436,2.9375,0,0,0,0,0
4.437,3.4375,0,0,0,0,0
4.438,3.5625,0,0,0,0,0
4.439,3.75,0,0,0,0,0
4.44,4.0625,0,0,0,0,0
4.441,4.6875,0,0,0,0,0
4.442,4.8125,0,0,0,0,0
4.443,5.625,0,0,0,0,0
4.444,5.1875,0,0,0,0,0
4.445,5.3125,0,0,0,0,0
4.446,5.3125,0,0,0,0,0
4.447,5,0,0,0,0,0
4.448,5.9375,0,0,0,0,0
4.449,6.5625,0,0,0,0,0
4.45,6.4375,0,0,0,0,0
4.451,6.875,0,0,0,0,0
4.452,6.125,0,0,0,0,0
4.453,5.3125,0,0,0,0,0
4.454,5.1875,0,0,0,0,0
4.455,5,0,0,0,0,0
4.456,5.1875,0,0,0,0,0
4.457,4.375,0,0,0,0,0
4.458,4.5625,0,0,0,0,0
4.459,4.375,0,0,0,0,0
4.46,5.125,0,0,0,0,0
4.461,5.9375,0,0,0,0,0
4.462,5.4375,0,0,0,0,0
4.463,5.3125,0,0,0,0,0
4.464,4.875,0,0,0,0,0
4.465,3.75,0,0,0,0,0
4.466,4.0625,0,0,0,0,0
4.467,3.75,0,0,0,1,0
4.468,3.625,0,0,0,0,0
4.469,3.4375,0,0,0,0,0
4.47,4.375,0,0,0,0,0
4.471,5.3125,0,0,0,0,0
4.472,5,0,0,0,0,0
4.473,5.3125,0,0,0,0,0
4.474,6.0625,0,0,0,0,0
4.475,7.1875,0,0,0,0,0
4.476,7.375,0,0,0,0,0
4.477,6.875,0,0,0,0,0
4.478,5.5,0,0,0,0,0
4.479,5.625,0,0,0,0,0
4.48,6.25,0,0,0,0,0
4.481,6.25,0,0,0,0,0
4.482,5.8125,0,0,0,0,0
4.483,5.625,0,0,0,0,0
4.484,5.9375,0,0,0,0,0
4.485,5.625,0,0,0,0,0
4.486,5.8125,0,0,0,0,0
4.487,5.625,0,0,0,0,0
4.488,5.3125,0,0,0,0,0
4.489,5.625,0,0,0,0,0
4.49,6.0625,0,0,0,0,0
4.491,5.9375,0,0,0,0,0
4.492,6.0625,0,0,0,0,0
4.493,5.9375,0,0,0,0,0
4.494,5.625,0,0,0,0,0
4.495,5.625,0,0,0,0,0
4.496,6.0625,0,0,0,0,0
4.497,5.9375,0,0,0,0,0
4.498,5.625,0,0,0,0,0
4.499,5.625,0,0,0,0,0
4.5,5,0,0,0,0,0
4.501,4.375,0,0,0,0,0
4.502,4.0625,0,0,0,0,0
4.503,4.0625,0,0,0,0,0
4.504,3.5625,0,0,0,0,0
4.505,3.75,0,0,0,0,0
4.506,3.75,0,0,0,0,0
4.507,4.375,0,0,0,0,0
4.508,4.6875,0,0,0,0,0
4.509,4.375,0,0,0,0,0
4.51,4.375,0,0,0,0,0
4.511,4.375,0,0,0,0,0
4.512,4.5625,0,0,0,0,0
4.513,3.75,0,0,0,0,0
4.514,3.875,0,0,0,0,0
4.515,4.0625,0,0,0,0,0
4.516,3.3125,0,0,0,0,0
4.517,3.125,0,0,0,0,0
4.518,3,0,0,0,0,0
4.519,3.125,0,0,0,0,0
4.52,4.1875,0,0,0,0,0
4.521,5.3125,0,0,0,0,0
4.522,5.3125,0,0,0,0,0
4.523,5.625,0,0,0,0,0
4.524,5.3125,0,0,0,0,0
4.525,5.3125,0,0,0,0,0
4.526,5.3125,0,0,0,0,0
4.527,5.3125,0,0,0,0,0
4.528,4.875,0,0,0,0,0
4.529,4.6875,0,0,0,0,0
4.53,4.375,0,0,0,0,0
4.531,4.375,0,0,0,0,0
4.532,4.5,0,0,0,0,0
4.533,5,0,0,0,0,0
4.534,4.875,0,0,0,0,0
4.535,4.375,0,0,0,0,0
4.536,3.625,0,0,0,0,0
4.537,2.5,0,0,0,0,0
4.538,3.25,0,0,0,0,0
4.539,4.6875,0,0,0,0,0
4.54,4.0625,0,0,0,0,0
4.541,3.75,0,0,0,0,0
4.542,3.4375,0,0,0,0,0
4.543,3.75,0,0,0,0,0
4.544,3.25,0,0,0,0,0
4.545,3.75,0,0,0,0,0
4.546,4.6875,0,0,0,0,0
4.547,4.6875,0,0,0,0,0
4.548,4.5,0,0,0,0,0
4.549,4.6875,0,0,0,0,0
4.55,4.375,0,0,0,0,0
4.551,4.375,0,0,0,0,0
4.552,4.375,0,0,0,0,0
4.553,3.75,0,0,0,0,0
4.554,3.3125,0,0,0,0,0
4.555,3.75,0,0,0,0,0
4.556,4.375,0,0,0,0,0
4.557,4.375,0,0,0,0,0
4.558,4.1875,0,0,0,0,0
4.559,4.375,0,0,0,0,0
4.56,4.25,0,0,0,0,1
4.561,4.375,0,0,0,0,0
4.562,4.25,0,0,0,0,0
4.563,4.0625,0,0,0,0,0
4.564,4.0625,0,0,0,0,0
4.565,3.4375,0,0,0,0,0
4.566,3.4375,0,0,0,0,0
4.567,3.4375,0,0,0,0,0
4.568,3.5625,0,0,0,0,0
4.569,3.4375,0,0,0,0,0
4.57,3.3125,0,0,0,0,0
4.571,2.8125,0,0,0,0,0
4.572,3.25,0,0,0,0,0
4.573,3.4375,0,0,0,0,0
4.574,2.8125,0,0,0,0,0
4.575,2.8125,0,0,0,0,0
4.576,3.4375,0,0,0,0,0
4.577,4.0625,0,0,0,0,0
4.578,4.1875,0,0,0,0,0
4.579,4.0625,0,0,0,0,0
4.58,3.9375,0,0,0,0,0
4.581,4.375,0,0,0,0,0
4.582,4.375,0,0,0,0,0
4.583,4.6875,0,0,0,0,0
4.584,4.5625,0,0,0,0,0
4.585,3.75,0,0,0,0,0
4.586,3.125,0,0,0,0,0
4.587,2.8125,0,0,0,0,0
4.588,2.625,0,0,0,0,0
4.589,2.8125,0,0,0,0,0
4.59,2.5,0,0,0,0,0
4.591,2.5,0,0,0,0,0
4.592,2.375,0,0,0,0,0
4.593,2.5,0,0,0,0,0
4.594,2.9375,0,0,0,0,0
4.595,3.125,0,0,0,0,0
4.596,2.625,0,0,0,0,0
4.597,3.125,0,0,0,0,0
4.598,2.9375,0,0,0,0,0
4.599,2.8125,0,0,0,0,0
4.6,2.8125,0,0,0,0,0
4.601,3.125,0,0,0,0,0
4.602,3.25,0,0,0,0,0
4.603,3.125,0,0,0,0,0
4.604,2.375,0,0,0,0,0
4.605,1.5625,0,0,0,0,0
4.606,2.5,0,0,0,0,0
4.607,3.4375,0,0,0,0,0
4.608,2.8125,0,0,0,0,0
4.609,3.125,0,0,0,0,0
4.61,3.125,0,0,0,0,0
4.611,2.8125,0,0,0,0,0
4.612,3.125,0,0,0,0,0
4.613,3.75,0,0,0,0,0
4.614,4.375,0,0,0,0,0
4.615,4.375,0,0,0,0,0
4.616,4.375,0,0,0,0,0
4.617,4.375,0,0,0,0,0
4.618,4.25,0,0,0,0,0
4.619,4.375,0,0,0,0,0
4.62,4.5625,0,0,0,0,0
4.621,3.4375,0,0,0,0,0
4.622,2.1875,0,0,0,0,0
4.623,1.5625,0,0,0,0,0
4.624,1.125,0,0,0,0,0
4.625,0.9375,0,0,0,0,0
4.626,1.6875,0,0,0,0,0
4.627,2.5,0,0,0,0,0
4.628,3.4375,0,0,0,0,0
4.629,3.75,0,0,0,0,0
4.63,3,0,0,0,0,0
4.631,2.1875,0,0,0,0,0
4.632,2.0625,0,0,0,0,0
4.633,1.25,0,0,0,0,0
4.634,1.25,0,0,0,0,0
4.635,1.25,0,0,0,0,0
4.636,1.5625,0,0,0,0,0
4.637,1.875,0,0,0,0,0
4.638,2.8125,0,0,0,0,0
4.639,3.4375,0,0,0,0,0
4.64,3.5625,0,0,0,0,0
4.641,3.75,0,0,0,0,0
4.642,3.875,0,0,0,0,0
4.643,4.375,0,0,0,0,0
4.644,3.9375,0,0,0,0,0
4.645,3.75,0,0,0,0,0
4.646,3.125,0,0,0,0,0
4.647,3.125,0,0,0,0,0
4.648,2.9375,0,0,0,0,0
4.649,3.4375,0,0,0,0,0
4.65,3.4375,0,0,0,0,0
4.651,3.4375,0,0,0,0,0
4.652,3.875,0,0,0,0,0
4.653,3.75,0,0,0,0,0
4.654,3.125,0,0,0,0,0
4.655,3.4375,0,0,0,0,0
4.656,3.75,0,0,0,0,0
4.657,3.75,0,0,0,0,0
4.658,3.125,0,0,0,0,0
4.659,2.5,0,0,0,0,0
4.66,2.1875,0,0,0,0,0
4.661,1.875,0,0,0,0,0
4.662,3.25,0,0,0,0,0
4.663,3.75,0,0,0,0,0
4.664,3.5625,0,0,0,0,0
4.665,3.4375,0,0,0,0,0
4.666,3.625,0,0,0,0,0
4.667,3.4375,0,0,0,0,0
4.668,3.5625,0,0,0,0,0
4.669,4.0625,0,0,0,0,0
4.67,3.625,0,0,0,0,0
4.671,3.125,0,0,0,0,0
4.672,2.5,0,0,0,0,0
4.673,2.5,0,0,0,0,0
4.674,2.3125,0,0,0,0,0
4.675,2.1875,0,0,0,0,0
4.676,2.9375,0,0,0,0,0
4.677,2.8125,0,0,0,0,0
4.678,2.5,0,0,0,0,0
4.679,2.8125,0,0,0,0,0
4.68,3.125,0,0,0,0,0
4.681,3.125,0,0,0,0,0
4.682,3.875,0,0,0,0,0
4.683,4.375,0,0,0,0,0
4.684,3.75,0,0,0,0,0
4.685,3.4375,0,0,0,0,0
4.686,3.125,0,0,0,0,0
4.687,3.75,0,0,0,0,0
4.688,4.0625,0,0,0,0,0
4.689,3.4375,0,0,0,0,0
4.69,3.125,0,0,0,0,0
4.691,3.4375,0,0,0,0,0
4.692,4.1875,0,0,0,0,0
4.693,4.6875,0,0,0,0,0
4.694,4.0625,0,0,0,0,0
4.695,4.0625,0,0,0,0,0
4.696,3.75,0,0,0,0,0
4.697,3.125,0,0,0,0,0
4.698,2.375,0,0,0,0,0
4.699,1.5625,0,0,0,0,0
4.7,1.4375,0,0,0,0,0
4.701,1.25,0,0,0,0,0
4.702,0.9375,0,0,0,0,0
4.703,1.25,0,0,0,0,0
4.704,1.375,0,0,0,0,0
4.705,1.25,0,0,0,0,0
4.706,1.25,0,0,0,0,0
4.707,1.5625,0,0,0,0,0
4.708,1.875,0,0,0,0,0
4.709,1.875,0,0,0,0,0
4.71,1.875,0,0,0,0,0
4.711,2.8125,0,0,0,0,0
4.712,2.8125,0,0,0,0,0
4.713,2.8125,0,0,0,0,0
4.714,2.5,0,0,0,0,0
4.715,2.1875,0,0,0,0,0
4.716,1.5625,0,0,0,0,0
4.717,0.9375,0,0,0,0,0
4.718,1.375,0,0,0,0,0
4.719,1.875,0,0,0,0,0
4.72,2.5,0,0,0,0,0
4.721,3.4375,0,0,0,0,0
4.722,3.75,0,0,0,0,0
4.723,3.4375,0,0,0,0,0
4.724,2.6875,0,0,0,0,0
4.725,1.875,0,0,0,0,0
4.726,2.3125,0,0,0,0,0
4.727,2.5,0,0,0,0,0
4.728,2.6875,0,0,0,0,0
4.729,2.5,0,0,0,0,0
4.73,2.625,0,0,0,0,0
4.731,2.8125,0,0,0,0,0
4.732,2.6875,0,0,0,0,0
4.733,3.125,0,0,0,0,0
4.734,3.25,0,0,0,0,0
4.735,3.125,0,0,0,0,0
4.736,3.25,0,0,0,0,0
4.737,3.125,0,0,0,0,0
4.738,3.3125,0,0,0,0,0
4.739,3.125,0,0,0,0,0
4.74,3.125,0,0,0,0,0
4.741,2.8125,0,0,0,0,0
4.742,3,0,0,0,0,0
4.743,3.125,0,0,0,0,0
4.744,3.4375,0,0,0,0,0
4.745,3.4375,0,0,0,0,0
4.746,3.25,0,0,0,0,0
4.747,3.75,0,0,0,0,0
4.748,3.4375,0,0,0,0,0
4.749,3.125,0,0,0,0,0
4.75,2.8125,0,0,0,0,0
4.751,3.125,0,0,0,0,0
4.752,3.25,0,0,0,0,0
4.753,3.75,0,0,0,0,0
4.754,4.0625,0,0,0,0,0
4.755,3.75,0,0,0,0,0
4.756,4.1875,0,0,0,0,0
4.757,4.0625,0,0,0,0,0
4.758,3.9375,0,0,0,0,0
4.759,4.0625,0,0,0,0,0
4.76,4.375,0,0,0,0,0
4.761,5.3125,0,0,0,0,0
4.762,4.6875,0,0,0,0,0
4.763,4.6875,0,0,0,0,0
4.764,4.5625,0,0,0,0,0
4.765,4.6875,0,0,0,0,0
4.766,3.9375,0,0,0,0,0
4.767,3.125,0,0,0,0,0
4.768,2.8125,0,0,0,0,0
4.769,2.8125,0,0,0,0,0
4.77,2.375,0,0,0,0,0
4.771,1.5625,0,0,0,0,0
4.772,2,0,0,0,0,0
4.773,1.875,0,0,0,0,0
4.774,1.5625,0,0,0,0,0
4.775,1.875,0,0,0,0,0
4.776,2.3125,0,0,0,0,0
4.777,2.1875,0,0,0,0,0
4.778,1.875,0,0,0,0,0
4.779,1.875,0,0,0,0,0
4.78,2.0625,0,0,0,0,0
4.781,1.875,0,0,0,0,0
4.782,2.625,0,0,0,0,0
4.783,3.125,0,0,0,0,0
4.784,1.875,0,0,0,0,0
4.785,2.1875,0,0,0,0,0
4.786,2.375,0,0,0,0,0
4.787,1.875,0,0,0,0,0
4.788,2.5,0,0,0,0,0
4.789,2.5,0,0,0,0,0
4.79,2.8125,0,0,0,0,0
4.791,3.4375,0,0,0,0,0
4.792,3.4375,0,0,0,0,0
4.793,3.4375,0,0,0,0,0
4.794,3.125,0,0,0,0,0
4.795,3.4375,0,0,0,0,0
4.796,3.125,0,0,0,0,0
4.797,2.1875,0,0,0,0,0
4.798,1.4375,0,0,0,0,0
4.799,0.9375,0,0,0,0,0
4.8,2.5,0,0,0,0,0
4.801,3.75,0,0,0,0,0
4.802,4.6875,0,0,0,0,0
4.803,5,0,0,0,0,0
4.804,5,0,0,0,0,0
4.805,4.375,0,0,0,0,0
4.806,3.9375,0,0,0,0,0
4.807,4.0625,0,0,0,0,0
4.808,3.9375,0,0,0,0,0
4.809,4.0625,0,0,0,0,0
4.81,3.75,0,0,0,0,0
4.811,3.4375,0,0,0,0,0
4.812,3.75,0,0,0,0,0
4.813,3.75,0,0,0,0,0
4.814,3.125,0,0,0,0,0
4.815,2.5,0,0,0,0,0
4.816,2.1875,0,0,0,0,0
4.817,1.5625,0,0,0,0,0
4.818,1.875,0,0,0,0,0
4.819,1.875,0,0,0,0,0
4.82,2.8125,0,0,0,0,0
4.821,3.125,0,0,0,0,0
4.822,2.9375,0,0,0,0,0
4.823,3.4375,0,0,0,0,0
4.824,3,0,0,0,0,0
4.825,2.1875,0,0,0,0,0
4.826,2.0625,0,0,0,0,0
4.827,2.1875,0,0,0,0,0
4.828,2.5,0,0,0,0,0
4.829,2.5,0,0,0,0,0
4.83,2.625,0,0,0,0,0
4.831,3.4375,0,0,0,0,0
4.832,4.0625,0,0,0,0,0
4.833,3.75,0,0,0,0,0
4.834,3.5625,0,0,0,0,0
4.835,3.75,0,0,0,0,0
4.836,3.625,0,0,0,0,0
4.837,3.125,0,0,0,0,0
4.838,2.375,0,0,0,0,0
4.839,2.1875,0,0,0,0,0
4.84,2.5,0,0,0,0,0
4.841,2.1875,0,0,0,0,0
4.842,2.375,0,0,0,0,0
4.843,2.1875,0,0,0,0,0
4.844,2.1875,0,0,0,0,0
4.845,1.875,0,0,0,0,0
4.846,1.875,0,0,0,0,0
4.847,2.1875,0,0,0,0,0
4.848,2.375,0,0,0,0,0
4.849,2.5,0,0,0,0,0
4.85,2.1875,0,0,0,0,0
4.851,2.1875,0,0,0,0,0
4.852,2.8125,0,0,0,0,0
4.853,3.75,0,0,0,0,0
4.854,3.5625,0,0,0,0,0
4.855,3.125,0,0,0,0,0
4.856,3.9375,0,0,0,0,0
4.857,4.375,0,0,0,0,0
4.858,4.8125,0,0,0,0,0
4.859,4.0625,0,0,0,0,0
4.86,4.1875,0,0,0,0,0
4.861,4.375,0,0,0,0,0
4.862,4.0625,0,0,0,0,0
4.863,4.6875,0,0,0,0,0
4.864,4.375,0,0,0,0,0
4.865,4.375,0,0,0,0,0
4.866,4.0625,0,0,0,0,0
4.867,3.75,0,0,0,0,0
4.868,2.5,0,0,0,0,0
4.869,1.875,0,0,0,0,0
4.87,2,0,0,0,0,0
4.871,1.875,0,0,0,0,0
4.872,1.75,0,0,0,0,0
4.873,1.875,0,0,0,0,0
4.874,2,0,0,0,0,0
4.875,2.1875,0,0,0,0,0
4.876,2.625,0,0,0,0,0
4.877,3.4375,0,0,0,0,0
4.878,3.125,0,0,0,0,0
4.879,3.125,0,0,0,0,0
4.88,2.9375,0,0,0,0,0
4.881,3.125,0,0,0,0,0
4.882,3.4375,0,0,0,0,0
4.883,3.75,0,0,0,0,0
4.884,4.5,0,0,0,0,0
4.885,4.375,0,0,0,0,0
4.886,3,0,0,0,0,0
4.887,2.1875,0,0,0,0,0
4.888,2.375,0,0,0,0,0
4.889,2.1875,0,0,0,0,0
4.89,2.3125,0,0,0,0,0
4.891,2.8125,0,0,0,0,0
4.892,3.4375,0,0,0,0,0
4.893,4.0625,0,0,0,0,0
4.894,3.9375,0,0,0,0,0
4.895,3.75,0,0,0,0,0
4.896,3.75,0,0,0,0,0
4.897,3.4375,0,0,0,0,0
4.898,3.5625,0,0,0,0,0
4.899,3.75,0,0,0,0,0
4.9,3,0,0,0,0,0
4.901,2.8125,0,0,0,0,0
4.902,3.625,0,0,0,0,0
4.903,3.4375,0,0,0,0,0
4.904,3.625,0,0,0,0,0
4.905,3.125,0,0,0,0,0
4.906,3.75,0,0,0,0,0
4.907,4.375,0,0,0,0,0
4.908,4.6875,0,0,0,0,0
4.909,4.6875,0,0,0,0,0
4.91,5.1875,0,0,0,0,0
4.911,5.3125,0,0,0,0,0
4.912,5,0,0,0,0,0
4.913,4.375,0,0,0,0,0
4.914,3.3125,0,0,0,0,0
4.915,3.125,0,0,0,0,0
4.916,2.8125,0,0,0,0,0
4.917,1.875,0,0,0,0,0
4.918,2.5,0,0,0,0,0
4.919,3.4375,0,0,0,0,0
4.92,3.75,0,0,0,0,0
4.921,4.0625,0,0,0,0,0
4.922,4.0625,0,0,0,0,0
4.923,4.375,0,0,0,0,0
4.924,4.875,0,0,0,0,0
4.925,4.375,0,0,0,0,0
4.926,4.375,0,0,0,0,0
4.927,4.375,0,0,0,0,0
4.928,5,0,0,0,0,0
4.929,5,0,0,0,0,0
4.93,5,0,0,0,0,0
4.931,4.6875,0,0,0,0,0
4.932,3.75,0,0,0,0,0
4.933,2.8125,0,0,0,0,0
4.934,3.4375,0,0,0,0,0
4.935,4.0625,0,0,0,0,0
4.936,4.375,0,0,0,0,0
4.937,4.0625,0,0,0,0,0
4.938,5,0,0,0,0,0
4.939,5.9375,0,0,0,0,0
4.94,5.9375,0,0,0,0,0
4.941,5.625,0,0,0,0,0
4.942,5,0,0,0,0,0
4.943,4.375,0,0,0,0,0
4.944,4.5625,0,0,0,0,0
4.945,4.375,0,0,0,0,0
4.946,4.1875,0,0,0,0,0
4.947,4.6875,0,0,0,0,0
4.948,5,0,0,0,0,0
4.949,5.9375,0,0,0,0,0
4.95,6.4375,0,0,0,0,0
4.951,6.25,0,0,0,0,0
4.952,6.0625,0,0,0,0,0
4.953,6.25,0,0,0,0,0
4.954,6.125,0,0,0,0,0
4.955,6.25,0,0,0,0,0
4.956,6.125,0,0,0,0,0
4.957,6.25,0,0,0,0,0
4.958,6.375,0,0,0,0,0
4.959,6.5625,0,0,0,0,0
4.96,5.8125,0,0,0,0,0
4.961,6.25,0,0,0,0,0
4.962,7.1875,0,0,0,0,0
4.963,7.8125,0,0,0,0,0
4.964,7.5,0,0,0,0,0
4.965,7.8125,0,0,0,0,0
4.966,7.6875,0,0,0,0,0
4.967,7.8125,0,0,0,0,0
4.968,7.9375,0,0,0,0,0
4.969,7.5,0,0,0,0,0
4.97,6.125,0,0,0,0,0
4.971,5,0,0,0,0,0
4.972,4.5625,0,0,0,0,0
4.973,4.6875,0,0,0,0,0
4.974,5.125,0,0,0,0,0
4.975,5,0,0,0,0,0
4.976,6.25,0,0,0,0,0
4.977,6.875,0,0,0,0,0
4.978,7.8125,0,0,0,0,0
4.979,9.0625,0,0,0,0,0
4.98,8.9375,0,0,0,0,0
4.981,8.4375,0,0,0,0,0
4.982,7.375,0,0,0,0,0
4.983,6.25,0,0,0,0,0
4.984,5.5,0,0,0,0,0
4.985,4.375,0,0,0,0,0
4.986,3.75,0,0,0,0,0
4.987,3.125,0,0,0,0,0
4.988,2.5,0,0,0,0,0
4.989,3.125,0,0,0,0,0
4.99,4.8125,0,0,0,0,0
4.991,6.25,0,0,0,0,0
4.992,5.4375,0,0,0,0,0
4.993,5.3125,0,0,0,0,0
4.994,5.3125,0,0,0,0,0
4.995,5.625,0,0,0,0,0
4.996,5.9375,0,0,0,0,0
4.997,5.625,0,0,0,0,0
4.998,5.9375,0,0,0,0,0
4.999,6.25,0,0,0,0,0
5,6.25,0,0,0,0,0
5.001,6.5625,0,0,0,0,0
5.002,6.4375,0,0,0,0,0
5.003,5.9375,0,0,0,0,0
5.004,6.25,0,0,0,0,0
5.005,6.25,0,0,0,0,0
5.006,5.5,0,0,0,0,0
5.007,5,0,0,0,0,0
5.008,4.375,0,0,0,0,0
5.009,3.75,0,0,0,0,0
5.01,3.4375,0,0,0,0,0
5.011,3.75,0,0,0,0,0
5.012,3.5625,0,0,0,0,0
5.013,3.4375,0,0,0,0,0
5.014,3.25,0,0,0,0,0
5.015,3.125,0,0,0,0,0
5.016,2.375,0,0,0,0,0
5.017,1.875,0,0,0,0,0
5.018,1.875,0,0,0,0,0
5.019,1.875,0,0,0,0,0
5.02,1.875,0,0,0,0,0
5.021,1.875,0,0,0,0,0
5.022,1.25,0,0,0,0,0
5.023,1.5625,0,0,0,0,0
5.024,1.6875,0,0,0,0,0
5.025,1.875,0,0,0,0,0
5.026,1.875,0,0,0,0,0
5.027,2.1875,0,0,0,0,0
5.028,2.375,0,0,0,0,0
5.029,2.1875,0,0,0,0,0
5.03,2,0,0,0,0,0
5.031,1.875,0,0,0,0,0
5.032,1.5625,0,0,0,0,0
5.033,1.5625,0,0,0,0,0
5.034,1.875,0,0,0,0,0
5.035,3.125,0,0,0,0,0
5.036,3.3125,0,0,0,0,0
5.037,2.1875,0,0,0,0,0
5.038,1.5625,0,0,0,0,0
5.039,1.25,0,0,0,0,0
5.04,1.875,0,0,0,0,0
5.041,2.8125,0,0,0,0,0
5.042,2.8125,0,0,0,0,0
5.043,2.8125,0,0,0,0,0
5.044,2.6875,0,0,0,0,0
5.045,2.1875,0,0,0,0,0
5.046,2.3125,0,0,0,0,0
5.047,2.1875,0,0,0,0,0
5.048,2.625,0,0,0,0,0
5.049,2.1875,0,0,0,0,0
5.05,1.4375,0,0,0,0,0
5.051,1.5625,0,0,0,0,0
5.052,1.75,0,0,0,0,0
5.053,2.1875,0,0,0,0,0
5.054,2,0,0,0,0,0
5.055,1.875,0,0,0,0,0
5.056,2.1875,0,0,0,0,0
5.057,2.1875,0,0,0,0,0
5.058,2.3125,0,0,0,0,0
5.059,2.5,0,0,0,0,0
5.06,3.125,0,0,0,0,0
5.061,3.125,0,0,0,0,0
5.062,3.125,0,0,0,0,0
5.063,3.125,0,0,0,0,0
5.064,2.375,0,0,0,0,0
5.065,0.9375,0,0,0,0,0
5.066,2,0,0,0,0,0
5.067,2.8125,0,0,0,0,0
5.068,3.4375,0,0,0,0,0
5.069,4.0625,0,0,0,0,0
5.07,4.375,0,0,0,0,0
5.071,5,0,0,0,0,0
5.072,4.375,0,0,0,0,0
5.073,4.0625,0,0,0,0,0
5.074,3.125,0,0,0,0,0
5.075,2.8125,0,0,0,0,0
5.076,2.0625,0,0,0,0,0
5.077,1.875,0,0,0,0,0
5.078,2.0625,0,0,0,0,0
5.079,1.5625,0,0,0,0,0
5.08,1.375,0,0,0,0,0
5.081,1.875,0,0,0,0,0
5.082,1.5625,0,0,0,0,0
5.083,1.5625,0,0,0,0,0
5.084,2.1875,0,0,0,0,0
5.085,2.5,0,0,0,0,0
5.086,3.125,0,0,0,0,0
5.087,3.75,0,0,0,0,0
5.088,3.9375,0,0,0,0,0
5.089,4.0625,0,0,0,0,0
5.09,3.9375,0,0,0,0,0
5.091,3.75,0,0,0,0,0
5.092,4.0625,0,0,0,0,0
5.093,4.375,0,0,0,0,0
5.094,5,0,0,0,0,0
5.095,4.6875,0,0,0,0,0
5.096,4.375,0,0,0,0,0
5.097,5.3125,0,0,0,0,0
5.098,5.3125,0,0,0,0,0
5.099,5.3125,0,0,0,0,0
5.1,5.1875,0,0,0,0,0
5.101,5.625,1,0,0,0,0
5.102,4.875,0,0,0,0,0
5.103,4.0625,0,0,0,0,0
5.104,5.125,0,0,0,0,0
5.105,5.3125,0,0,0,0,0
5.106,6.0625,0,0,0,0,0
5.107,6.5625,0,0,0,0,0
5.108,6.875,0,0,0,0,0
5.109,7.5,0,0,0,0,0
5.11,9.1875,0,0,0,0,0
5.111,10.938,0,0,0,0,0
5.112,12.5,0,0,0,0,0
5.113,14.375,0,0,0,0,0
5.114,15.625,0,0,0,0,0
5.115,17.188,0,0,0,0,0
5.116,18.438,0,0,0,0,0
5.117,20,0,0,0,0,0
5.118,21.125,0,0,0,0,0
5.119,22.188,0,0,0,0,0
5.12,22.813,0,0,0,0,0
5.121,24.375,0,0,0,0,0
5.122,25.813,0,0,0,0,0
5.123,27.813,0,0,0,0,0
5.124,28.938,0,0,0,0,0
5.125,30.938,0,0,0,0,0
5.126,35.625,0,0,0,0,0
5.127,40.313,0,0,0,0,0
5.128,42.813,0,0,0,0,0
5.129,46.25,0,0,0,0,0
5.13,49.563,0,0,0,0,0
5.131,52.188,0,0,0,0,0
5.132,54.563,0,0,0,0,0
5.133,56.875,0,0,0,0,0
5.134,59.375,0,0,0,0,0
5.135,60.938,0,0,0,0,0
5.136,62.938,0,0,0,0,0
5.137,64.688,0,0,0,0,0
5.138,65.188,0,0,0,0,0
5.139,65.313,0,1,0,0,0
5.14,65.625,0,0,0,0,0
5.141,65.938,0,0,0,0,0
5.142,65.938,0,0,0,0,0
5.143,65.938,0,0,0,0,0
5.144,65.75,0,0,0,0,0
5.145,64.688,0,0,0,0,0
5.146,64.063,0,0,0,0,0
5.147,63.125,0,0,0,0,0
5.148,61.875,0,0,0,0,0
5.149,61.25,0,0,0,0,0
5.15,60.188,0,0,0,0,0
5.151,59.063,0,0,0,0,0
5.152,56.25,0,0,0,0,0
5.153,52.188,0,0,0,0,0
5.154,46.75,0,0,0,0,0
5.155,41.25,0,0,0,0,0
5.156,36.688,0,0,0,0,0
5.157,32.188,0,0,0,0,0
5.158,28.25,0,0,0,0,0
5.159,24.375,0,0,0,0,0
5.16,21.25,0,0,0,0,0
5.161,19.063,0,0,0,0,0
5.162,17.813,0,0,0,0,0
5.163,17.188,0,0,0,0,0
5.164,16.125,0,0,0,0,0
5.165,14.375,0,0,0,0,0
5.166,12,0,0,0,0,0
5.167,10.313,0,0,0,0,0
5.168,8.9375,0,0,0,0,0
5.169,7.1875,0,0,0,0,0
5.17,5.9375,0,0,0,0,0
5.171,4.375,0,0,0,0,0
5.172,2.8125,0,0,0,0,0
5.173,2.8125,0,0,0,0,0
5.174,3.125,0,0,0,0,0
5.175,3.4375,0,0,1,0,0
5.176,3.75,0,0,0,0,0
5.177,3.4375,0,0,0,0,0
5.178,3.875,0,0,0,0,0
5.179,3.75,0,0,0,0,0
5.18,3.5625,0,0,0,0,0
5.181,3.125,0,0,0,0,0
5.182,1.125,0,0,0,0,0
5.183,0,0,0,0,0,0
5.184,-0.4375,0,0,0,0,0
5.185,-1.25,0,0,0,0,0
5.186,-0.3125,0,0,0,0,0
5.187,0.3125,0,0,0,0,0
5.188,1.25,0,0,0,0,0
5.189,2.5,0,0,0,0,0
5.19,1.875,0,0,0,0,0
5.191,1.875,0,0,0,0,0
5.192,1.875,0,0,0,0,0
5.193,1.875,0,0,0,0,0
5.194,1.125,0,0,0,0,0
5.195,0.9375,0,0,0,0,0
5.196,1.125,0,0,0,0,0
5.197,0.625,0,0,0,0,0
5.198,1.5625,0,0,0,0,0
5.199,1.5625,0,0,0,0,0
5.2,1.0625,0,0,0,0,0
5.201,0.625,0,0,0,0,0
5.202,0.1875,0,0,0,0,0
5.203,0.3125,0,0,0,0,0
5.204,0.625,0,0,0,0,0
5.205,0.625,0,0,0,0,0
5.206,0.3125,0,0,0,0,0
5.207,0.625,0,0,0,0,0
5.208,0.625,0,0,0,0,0
5.209,0,0,0,0,0,0
5.21,1.25,0,0,0,0,0
5.211,1.5625,0,0,0,0,0
5.212,0.9375,0,0,0,0,0
5.213,1.5625,0,0,0,0,0
5.214,1.5625,0,0,0,0,0
5.215,1.25,0,0,0,0,0
5.216,0.625,0,0,0,0,0
5.217,0,0,0,0,0,0
5.218,0.4375,0,0,0,0,0
5.219,1.25,0,0,0,0,0
5.22,1.375,0,0,0,0,0
5.221,1.5625,0,0,0,0,0
5.222,1.875,0,0,0,0,0
5.223,1.875,0,0,0,0,0
5.224,1.4375,0,0,0,0,0
5.225,0.9375,0,0,0,0,0
5.226,0.3125,0,0,0,0,0
5.227,-0.3125,0,0,0,0,0
5.228,0.3125,0,0,0,0,0
5.229,0,0,0,0,0,0
5.23,0.3125,0,0,0,0,0
5.231,0.625,0,0,0,0,0
5.232,0.625,0,0,0,0,0
5.233,0.9375,0,0,0,0,0
5.234,0.75,0,0,0,0,0
5.235,0.625,0,0,0,0,0
5.236,0.8125,0,0,0,0,0
5.237,0.9375,0,0,0,0,0
5.238,1.375,0,0,0,0,0
5.239,1.875,0,0,0,0,0
5.24,2.5,0,0,0,0,0
5.241,3.125,0,0,0,0,0
5.242,3,0,0,0,0,0
5.243,2.8125,0,0,0,0,0
5.244,2.0625,0,0,0,0,0
5.245,1.25,0,0,0,0,0
5.246,2.3125,0,0,0,0,0
5.247,3.125,0,0,0,0,0
5.248,3.25,0,0,0,0,0
5.249,4.0625,0,0,0,0,0
5.25,3,0,0,0,0,0
5.251,1.875,0,0,0,0,0
5.252,1.4375,0,0,0,0,0
5.253,1.25,0,0,0,0,0
5.254,0.75,0,0,0,0,0
5.255,0.9375,0,0,0,0,0
5.256,0,0,0,0,0,0
5.257,-1.25,0,0,0,0,0
5.258,-1.375,0,0,0,0,0
5.259,-1.25,0,0,0,0,0
5.26,-2.3125,0,0,0,0,0
5.261,-2.8125,0,0,0,0,0
5.262,-2,0,0,0,0,0
5.263,-2.5,0,0,0,0,0
5.264,-1.125,0,0,0,0,0
5.265,0,0,0,0,0,0
5.266,0.125,0,0,0,0,0
5.267,0.3125,0,0,0,0,0
5.268,0.75,0,0,0,0,0
5.269,0.9375,0,0,0,0,0
5.27,0.9375,0,0,0,0,0
5.271,1.5625,0,0,0,0,0
5.272,1.875,0,0,0,0,0
5.273,1.5625,0,0,0,0,0
5.274,2.1875,0,0,0,0,0
5.275,2.5,0,0,0,0,0
5.276,2.375,0,0,0,0,0
5.277,2.5,0,0,0,0,0
5.278,1.75,0,0,0,0,0
5.279,1.25,0,0,0,0,0
5.28,2.3125,0,0,0,0,0
5.281,2.8125,0,0,0,0,0
5.282,2.375,0,0,0,0,0
5.283,2.1875,0,0,0,0,0
5.284,0.8125,0,0,0,0,0
5.285,-0.9375,0,0,0,0,0
5.286,-1.5625,0,0,0,0,0
5.287,-1.25,0,0,0,0,0
5.288,-0.3125,0,0,0,0,0
5.289,0,0,0,0,0,0
5.29,0,0,0,0,0,0
5.291,0.3125,0,0,0,0,0
5.292,0.1875,0,0,0,0,0
5.293,0.3125,0,0,0,0,0
5.294,0.75,0,0,0,0,0
5.295,1.25,0,0,0,0,0
5.296,1.375,0,0,0,0,0
5.297,1.25,0,0,0,0,0
5.298,0.9375,0,0,0,0,0
5.299,0,0,0,0,0,0
5.3,1.0625,0,0,0,0,0
5.301,0.3125,0,0,0,0,0
5.302,-0.4375,0,0,0,0,0
5.303,-0.3125,0,0,0,0,0
5.304,0.125,0,0,0,0,0
5.305,0.9375,0,0,0,0,0
5.306,1.5625,0,0,0,0,0
5.307,1.25,0,0,0,0,0
5.308,0.625,0,0,0,0,0
5.309,0,0,0,0,0,0
5.31,-0.3125,0,0,0,0,0
5.311,-0.9375,0,0,0,0,0
5.312,-1.25,0,0,0,0,0
5.313,-0.9375,0,0,0,0,0
5.314,-0.5,0,0,0,0,0
5.315,0.625,0,0,0,0,0
5.316,0.625,0,0,0,0,0
5.317,0.625,0,0,0,0,0
5.318,0.9375,0,0,0,0,0
5.319,0.9375,0,0,0,0,0
5.32,0.75,0,0,0,0,0
5.321,1.25,0,0,0,0,0
5.322,2,0,0,0,0,0
5.323,2.5,0,0,0,0,0
5.324,2.0625,0,0,0,0,0
5.325,1.25,0,0,0,0,0
5.326,0.9375,0,0,0,0,0
5.327,0.9375,0,0,0,0,0
5.328,1.0625,0,0,0,0,0
5.329,1.25,0,0,0,0,0
5.33,0.625,0,0,0,0,0
5.331,0.9375,0,0,0,0,0
5.332,0.1875,0,0,0,0,0
5.333,0.9375,0,0,0,0,0
5.334,1.25,0,0,0,0,0
5.335,0.9375,0,0,0,0,0
5.336,1.25,0,0,0,0,0
5.337,0.9375,0,0,0,0,0
5.338,2.1875,0,0,0,0,0
5.339,2.1875,0,0,0,0,0
5.34,2.9375,0,0,0,0,0
5.341,2.8125,0,0,0,0,0
5.342,2.1875,0,0,0,0,0
5.343,2.1875,0,0,0,0,0
5.344,0.3125,0,0,0,0,0
5.345,-1.875,0,0,0,0,0
5.346,-1.5625,0,0,0,0,0
5.347,-1.25,0,0,0,0,0
5.348,-1.25,0,0,0,0,0
5.349,-1.5625,0,0,0,0,0
5.35,-1.25,0,0,0,0,0
5.351,-1.25,0,0,0,0,0
5.352,-1.6875,0,0,0,0,0
5.353,-1.25,0,0,0,0,0
5.354,-0.9375,0,0,0,0,0
5.355,-0.9375,0,0,0,0,0
5.356,-0.3125,0,0,0,0,0
5.357,-0.9375,0,0,0,0,0
5.358,-0.8125,0,0,0,0,0
5.359,-0.625,0,0,0,0,0
5.36,-0.3125,0,0,0,0,0
5.361,0,0,0,0,0,0
5.362,0.125,0,0,0,0,0
5.363,0.3125,0,0,0,0,0
5.364,0.4375,0,0,0,0,0
5.365,0.625,0,0,0,0,0
5.366,0.625,0,0,0,0,0
5.367,0,0,0,0,0,0
5.368,0.75,0,0,0,0,0
5.369,1.25,0,0,0,0,0
5.37,1.0625,0,0,0,0,0
5.371,1.25,0,0,0,0,0
5.372,1.375,0,0,0,0,0
5.373,1.875,0,0,0,0,0
5.374,2.5,0,0,0,0,0
5.375,3.4375,0,0,0,0,0
5.376,3.625,0,0,0,0,0
5.377,3.4375,0,0,0,0,0
5.378,2.1875,0,0,0,0,0
5.379,0.625,0,0,0,0,0
5.38,0.9375,0,0,0,0,0
5.381,0.3125,0,0,0,0,0
5.382,-0.125,0,0,0,0,0
5.383,-0.3125,0,0,0,0,0
5.384,0,0,0,0,0,0
5.385,0,0,0,0,0,0
5.386,-0.625,0,0,0,0,0
5.387,-0.625,0,0,0,0,0
5.388,-0.3125,0,0,0,0,0
5.389,0,0,0,0,0,0
5.39,-0.3125,0,0,0,0,0
5.391,0.3125,0,0,0,0,0
5.392,0,0,0,0,0,0
5.393,0,0,0,0,0,0
5.394,0.9375,0,0,0,0,0
5.395,0.625,0,0,0,0,0
5.396,0.3125,0,0,0,0,0
5.397,0.3125,0,0,0,0,0
5.398,0.3125,0,0,0,0,0
5.399,0.625,0,0,0,0,0
5.4,0,0,0,0,0,0
5.401,0,0,0,0,0,0
5.402,0.3125,0,0,0,0,0
5.403,0.625,0,0,0,0,0
5.404,1.375,0,0,0,0,0
5.405,2.5,0,0,0,0,0
5.406,2.5,0,0,0,0,0
5.407,2.1875,0,0,0,0,0
5.408,2.0625,0,0,0,0,0
5.409,2.1875,0,0,0,0,0
5.41,2.8125,0,0,0,0,0
5.411,2.8125,0,0,0,0,0
5.412,2.625,0,0,0,0,0
5.413,3.125,0,0,0,0,0
5.414,2.5,0,0,0,0,0
5.415,1.875,0,0,0,0,0
5.416,1.125,0,0,0,0,0
5.417,0,0,0,0,0,0
5.418,-0.125,0,0,0,0,0
5.419,0,0,0,0,0,0
5.42,1.0625,0,0,0,0,0
5.421,1.5625,0,0,0,0,0
5.422,1.5625,0,0,0,0,0
5.423,1.875,0,0,0,0,0
5.424,1.875,0,0,0,0,0
5.425,1.875,0,0,0,0,0
5.426,1.4375,0,0,0,0,0
5.427,1.875,0,0,0,0,0
5.428,1.875,0,0,0,0,0
5.429,1.875,0,0,0,0,0
5.43,0.9375,0,0,0,0,0
5.431,0.625,0,0,0,0,0
5.432,0,0,0,0,0,0
5.433,-0.625,0,0,0,0,0
5.434,-0.75,0,0,0,0,0
5.435,-0.3125,0,0,0,0,0
5.436,-0.4375,0,0,0,0,0
5.437,-0.625,0,0,0,0,0
5.438,-0.3125,0,0,0,0,0
5.439,-0.3125,0,0,0,0,0
5.44,-0.5,0,0,0,0,0
5.441,-0.625,0,0,0,0,0
5.442,-0.3125,0,0,0,0,0
5.443,0.625,0,0,0,0,0
5.444,0.625,0,0,0,0,0
5.445,0.3125,0,0,0,0,0
5.446,0.125,0,0,0,0,0
5.447,0.3125,0,0,0,0,0
5.448,0,0,0,0,0,0
5.449,0.3125,0,0,0,0,0
5.45,0,0,0,0,0,0
5.451,0,0,0,0,0,0
5.452,0.4375,0,0,0,0,0
5.453,0.9375,0,0,0,0,0
5.454,1.25,0,0,0,0,0
5.455,1.5625,0,0,0,0,0
5.456,2,0,0,0,0,0
5.457,1.875,0,0,0,0,0
5.458,0.9375,0,0,0,0,0
