0,-1.875,0,0,0,0,0
0.001,-1.875,0,0,0,0,0
0.002,-1.875,0,0,0,0,0
0.003,-1.875,0,0,0,0,0
0.004,-1.875,0,0,0,0,0
0.005,-1.875,0,0,0,0,0
0.006,-2.1875,0,0,0,0,0
0.007,-2.5,0,0,0,0,0
0.008,-2.1875,0,0,0,0,0
0.009,-1.875,0,0,0,0,0
0.01,-2.1875,0,0,0,0,0
0.011,-2.5,0,0,0,0,0
0.012,-2.1875,0,0,0,0,0
0.013,-1.875,0,0,0,0,0
0.014,-2.1875,0,0,0,0,0
0.015,-2.5,0,0,0,0,0
0.016,-2.1875,0,0,0,0,0
0.017,-1.875,0,0,0,0,0
0.018,-2.1875,0,0,0,0,0
0.019,-2.5,0,0,0,0,0
0.02,-2.5,0,0,0,0,0
0.021,-2.5,0,0,0,0,0
0.022,-2.5,0,0,0,0,0
0.023,-2.5,0,0,0,0,0
0.024,-2.5,0,0,0,0,0
0.025,-2.5,0,0,0,0,0
0.026,-2.1875,0,0,0,0,0
0.027,-1.875,0,0,0,0,0
0.028,-2.1875,0,0,0,0,0
0.029,-2.5,0,0,0,0,0
0.03,-2.1875,0,0,0,0,0
0.031,-1.875,0,0,0,0,0
0.032,-1.875,0,0,0,0,0
0.033,-1.875,0,0,0,0,0
0.034,-2.1875,0,0,0,0,0
0.035,-2.5,0,0,0,0,0
0.036,-2.8125,0,0,0,0,0
0.037,-3.125,0,0,0,0,0
0.038,-2.1875,0,0,0,0,0
0.039,-1.25,0,0,0,0,0
0.04,-1.25,0,0,0,0,0
0.041,-1.25,0,0,0,0,0
0.042,-1.5625,0,0,0,0,0
0.043,-1.875,0,0,0,0,0
0.044,-1.5625,0,0,0,0,0
0.045,-1.25,0,0,0,0,0
0.046,-1.25,0,0,0,0,0
0.047,-1.25,0,0,0,0,0
0.048,-1.25,0,0,0,0,0
0.049,-1.25,0,0,0,0,0
0.05,-0.9375,0,0,0,0,0
0.051,-0.625,0,0,0,0,0
0.052,-0.625,0,0,0,0,0
0.053,-0.625,0,0,0,0,0
0.054,-0.625,0,0,0,0,0
0.055,-0.625,0,0,0,0,0
0.056,-0.625,0,0,0,0,0
0.057,-0.625,0,0,0,0,0
0.058,0.625,0,0,0,0,0
0.059,1.875,0,0,0,0,0
0.06,1.875,0,0,0,0,0
0.061,1.875,0,0,0,0,0
0.062,1.5625,0,0,0,0,0
0.063,1.25,0,0,0,0,0
0.064,1.25,0,0,0,0,0
0.065,1.25,0,0,0,0,0
0.066,1.5625,0,0,0,0,0
0.067,1.875,0,0,0,0,0
0.068,2.1875,0,0,0,0,0
0.069,2.5,0,0,0,0,0
0.07,2.1875,0,0,0,0,0
0.071,1.875,0,0,0,0,0
0.072,1.875,0,0,0,0,0
0.073,1.875,0,0,0,0,0
0.074,1.875,0,0,0,0,0
0.075,1.875,0,0,0,0,0
0.076,1.875,0,0,0,0,0
0.077,1.875,0,0,0,0,0
0.078,2.1875,0,0,0,0,0
0.079,2.5,0,0,0,0,0
0.08,2.5,0,0,0,0,0
0.081,2.5,0,0,0,0,0
0.082,2.5,0,0,0,0,0
0.083,2.5,0,0,0,0,0
0.084,2.5,0,0,0,0,0
0.085,2.5,0,0,0,0,0
0.086,2.5,0,0,0,0,0
0.087,2.5,0,0,0,0,0
0.088,2.1875,0,0,0,0,0
0.089,1.875,0,0,0,0,0
0.09,2.8125,0,0,0,0,0
0.091,3.75,0,0,0,0,0
0.092,4.375,0,0,0,0,0
0.093,5,0,0,0,0,0
0.094,5,0,0,0,0,0
0.095,5,0,0,0,0,0
0.096,5,0,0,0,0,0
0.097,5,0,0,0,0,0
0.098,5.3125,0,0,0,0,0
0.099,5.625,0,0,0,0,0
0.1,6.25,0,0,0,0,0
0.101,6.875,0,0,0,0,0
0.102,7.1875,0,0,0,0,0
0.103,7.5,0,0,0,0,0
0.104,7.1875,0,0,0,0,0
0.105,6.875,0,0,0,0,0
0.106,6.875,0,0,0,0,0
0.107,6.875,0,0,0,0,0
0.108,7.1875,0,0,0,0,0
0.109,7.5,0,0,0,0,0
0.11,7.5,0,0,0,0,0
0.111,7.5,0,0,0,0,0
0.112,7.5,0,0,0,0,0
0.113,7.5,0,0,0,0,0
0.114,8.125,0,0,0,0,0
0.115,8.75,0,0,0,0,0
0.116,8.4375,0,0,0,0,0
0.117,8.125,0,0,0,0,0
0.118,7.8125,0,0,0,0,0
0.119,7.5,0,0,0,0,0
0.12,8.125,0,0,0,0,0
0.121,8.75,0,0,0,0,0
0.122,9.375,0,0,0,0,0
0.123,10,0,0,0,0,0
0.124,10,0,0,0,0,0
0.125,10,0,0,0,0,0
0.126,10,0,0,0,0,0
0.127,10,0,0,0,0,0
0.128,10.313,0,0,0,0,0
0.129,10.625,0,0,0,0,0
0.13,10.938,0,0,0,0,0
0.131,11.25,0,0,0,0,0
0.132,11.563,0,0,0,0,0
0.133,11.875,0,0,0,0,0
0.134,12.188,0,0,0,0,0
0.135,12.5,0,0,0,0,0
0.136,12.5,0,0,0,0,0
0.137,12.5,0,0,0,0,0
0.138,12.188,0,0,0,0,0
0.139,11.875,0,0,0,0,0
0.14,11.875,0,0,0,0,0
0.141,11.875,0,0,0,0,0
0.142,12.188,0,0,0,0,0
0.143,12.5,0,0,0,0,0
0.144,12.5,0,0,0,0,0
0.145,12.5,0,0,0,0,0
0.146,13.125,0,0,0,0,0
0.147,13.75,0,0,0,0,0
0.148,14.063,0,0,0,0,0
0.149,14.375,0,0,0,0,0
0.15,14.063,0,0,0,0,0
0.151,13.75,0,0,0,0,0
0.152,13.75,0,0,0,0,0
0.153,13.75,0,0,0,0,0
0.154,13.75,0,0,0,0,0
0.155,13.75,0,0,0,0,0
0.156,13.75,0,0,0,0,0
0.157,13.75,0,0,0,0,0
0.158,13.75,0,1,0,0,0
0.159,13.75,0,0,0,0,0
0.16,13.75,0,0,0,0,0
0.161,13.75,0,0,0,0,0
0.162,14.063,0,0,0,0,0
0.163,14.375,0,0,0,0,0
0.164,13.75,0,0,0,0,0
0.165,13.125,0,0,0,0,0
0.166,13.125,0,0,0,0,0
0.167,13.125,0,0,0,0,0
0.168,13.438,0,0,0,0,0
0.169,13.75,0,0,0,0,0
0.17,12.813,0,0,0,0,0
0.171,11.875,0,0,0,0,0
0.172,12.188,0,0,0,0,0
0.173,12.5,0,0,0,0,0
0.174,12.5,0,0,0,0,0
0.175,12.5,0,0,0,0,0
0.176,12.188,0,0,0,0,0
0.177,11.875,0,0,0,0,0
0.178,11.875,0,0,0,0,0
0.179,11.875,0,0,0,0,0
0.18,12.5,0,0,0,0,0
0.181,13.125,0,0,0,0,0
0.182,12.813,0,0,0,0,0
0.183,12.5,0,0,0,0,0
0.184,11.563,0,0,0,0,0
0.185,10.625,0,0,0,0,0
0.186,10.938,0,0,0,0,0
0.187,11.25,0,0,0,0,0
0.188,10.625,0,0,0,0,0
0.189,10,0,0,0,0,0
0.19,10,0,0,0,0,0
0.191,10,0,0,0,0,0
0.192,10,0,0,0,0,0
0.193,10,0,0,0,0,0
0.194,9.375,0,0,0,0,0
0.195,8.75,0,0,0,0,0
0.196,8.4375,0,0,0,0,0
0.197,8.125,0,0,0,0,0
0.198,7.8125,0,0,0,0,0
0.199,7.5,0,0,0,0,0
0.2,7.5,0,0,0,0,0
0.201,7.5,0,0,0,0,0
0.202,7.5,0,0,0,0,0
0.203,7.5,0,0,0,0,0
0.204,7.1875,0,0,0,0,0
0.205,6.875,0,0,0,0,0
0.206,6.875,0,0,0,0,0
0.207,6.875,0,0,0,0,0
0.208,6.875,0,0,0,0,0
0.209,6.875,0,0,0,0,0
0.21,6.5625,0,0,0,0,0
0.211,6.25,0,0,0,0,0
0.212,6.25,0,0,0,0,0
0.213,6.25,0,0,0,0,0
0.214,5.9375,0,0,0,0,0
0.215,5.625,0,0,0,0,0
0.216,4.6875,0,0,0,0,0
0.217,3.75,0,0,0,0,0
0.218,3.75,0,0,0,0,0
0.219,3.75,0,0,0,0,0
0.22,3.75,0,0,0,0,0
0.221,3.75,0,0,0,0,0
0.222,3.4375,0,0,0,0,0
0.223,3.125,0,0,0,0,0
0.224,3.125,0,0,0,0,0
0.225,3.125,0,0,0,0,0
0.226,3.125,0,0,0,0,0
0.227,3.125,0,0,0,0,0
0.228,2.1875,0,0,0,0,0
0.229,1.25,0,0,0,0,0
0.23,1.5625,0,0,0,0,0
0.231,1.875,0,0,0,0,0
0.232,1.5625,0,0,0,0,0
0.233,1.25,0,0,0,0,0
0.234,1.5625,0,0,0,0,0
0.235,1.875,0,0,0,0,0
0.236,1.5625,0,0,0,0,0
0.237,1.25,0,0,0,0,0
0.238,0.625,0,0,0,0,0
0.239,0,0,0,0,0,0
0.24,0,0,0,0,0,0
0.241,0,0,0,0,0,0
0.242,0,0,0,0,0,0
0.243,0,0,0,0,0,0
0.244,0,0,0,0,0,0
0.245,0,0,0,0,0,0
0.246,0,0,0,0,0,0
0.247,0,0,0,0,0,0
0.248,-0.625,0,0,0,0,0
0.249,-1.25,0,0,0,0,0
0.25,-1.25,0,0,0,0,0
0.251,-1.25,0,0,0,0,0
0.252,-0.9375,0,0,0,0,0
0.253,-0.625,0,0,0,0,0
0.254,-0.625,0,0,0,0,0
0.255,-0.625,0,0,0,0,0
0.256,-1.25,0,0,0,0,0
0.257,-1.875,0,0,0,0,0
0.258,-2.1875,0,0,0,0,0
0.259,-2.5,0,0,0,0,0
0.26,-2.1875,0,0,0,0,0
0.261,-1.875,0,0,0,0,1
0.262,-2.5,0,0,0,0,0
0.263,-3.125,0,0,0,0,0
0.264,-2.8125,0,0,0,0,0
0.265,-2.5,0,0,0,0,0
0.266,-2.1875,0,0,0,0,0
0.267,-1.875,0,0,0,0,0
0.268,-1.5625,0,0,0,0,0
0.269,-1.25,0,0,0,0,0
0.27,-1.5625,0,0,0,0,0
0.271,-1.875,0,0,0,0,0
0.272,-1.875,0,0,0,0,0
0.273,-1.875,0,0,0,0,0
0.274,-2.1875,0,0,0,0,0
0.275,-2.5,0,0,0,0,0
0.276,-3.125,0,0,0,0,0
0.277,-3.75,0,0,0,0,0
0.278,-3.4375,0,0,0,0,0
0.279,-3.125,0,0,0,0,0
0.28,-2.8125,0,0,0,0,0
0.281,-2.5,0,0,0,0,0
0.282,-2.5,0,0,0,0,0
0.283,-2.5,0,0,0,0,0
0.284,-2.5,0,0,0,0,0
0.285,-2.5,0,0,0,0,0
0.286,-2.5,0,0,0,0,0
0.287,-2.5,0,0,0,0,0
0.288,-2.5,0,0,0,0,0
0.289,-2.5,0,0,0,0,0
0.29,-2.8125,0,0,0,0,0
0.291,-3.125,0,0,0,0,0
0.292,-3.4375,0,0,0,0,0
0.293,-3.75,0,0,0,0,0
0.294,-3.4375,0,0,0,0,0
0.295,-3.125,0,0,0,0,0
0.296,-3.125,0,0,0,0,0
0.297,-3.125,0,0,0,0,0
0.298,-2.8125,0,0,0,0,0
0.299,-2.5,0,0,0,0,0
0.3,-2.5,0,0,0,0,0
0.301,-2.5,0,0,0,0,0
0.302,-2.8125,0,0,0,0,0
0.303,-3.125,0,0,0,0,0
0.304,-3.125,0,0,0,0,0
0.305,-3.125,0,0,0,0,0
0.306,-2.8125,0,0,0,0,0
0.307,-2.5,0,0,0,0,0
0.308,-2.8125,0,0,0,0,0
0.309,-3.125,0,0,0,0,0
0.31,-2.8125,0,0,0,0,0
0.311,-2.5,0,0,0,0,0
0.312,-2.5,0,0,0,0,0
0.313,-2.5,0,0,0,0,0
0.314,-2.8125,0,0,0,0,0
0.315,-3.125,0,0,0,0,0
0.316,-3.125,0,0,0,0,0
0.317,-3.125,0,0,0,0,0
0.318,-3.4375,0,0,0,0,0
0.319,-3.75,0,0,0,0,0
0.32,-3.4375,0,0,0,0,0
0.321,-3.125,0,0,0,0,0
0.322,-3.125,0,0,0,0,0
0.323,-3.125,0,0,0,0,0
0.324,-3.4375,0,0,0,0,0
0.325,-3.75,0,0,0,0,0
0.326,-3.75,0,0,0,0,0
0.327,-3.75,0,0,0,0,0
0.328,-3.4375,0,0,0,0,0
0.329,-3.125,0,0,0,0,0
0.33,-2.8125,0,0,0,0,0
0.331,-2.5,0,0,0,0,0
0.332,-2.1875,0,0,0,0,0
0.333,-1.875,0,0,0,0,0
0.334,-2.1875,0,0,0,0,0
0.335,-2.5,0,0,0,0,0
0.336,-2.1875,0,0,0,0,0
0.337,-1.875,0,0,0,0,0
0.338,-2.1875,0,0,0,0,0
0.339,-2.5,0,0,0,0,0
0.34,-2.1875,0,0,0,0,0
0.341,-1.875,0,0,0,0,0
0.342,-2.1875,0,0,0,0,0
0.343,-2.5,0,0,0,0,0
0.344,-2.5,0,0,0,0,0
0.345,-2.5,0,0,0,0,0
0.346,-2.8125,0,0,0,0,0
0.347,-3.125,0,0,0,0,0
0.348,-3.4375,0,0,0,0,0
0.349,-3.75,0,0,0,0,0
0.35,-3.75,0,0,0,0,0
0.351,-3.75,0,0,0,0,0
0.352,-3.75,0,0,0,0,0
0.353,-3.75,0,0,0,0,0
0.354,-3.75,0,0,0,0,0
0.355,-3.75,0,0,0,0,0
0.356,-3.4375,0,0,0,0,0
0.357,-3.125,0,0,0,0,0
0.358,-3.4375,0,0,0,0,0
0.359,-3.75,0,0,0,0,0
0.36,-3.4375,0,0,0,0,0
0.361,-3.125,0,0,0,0,0
0.362,-3.4375,0,0,0,0,0
0.363,-3.75,0,0,0,0,0
0.364,-3.75,0,0,0,0,0
0.365,-3.75,0,0,0,0,0
0.366,-3.75,0,0,0,0,0
0.367,-3.75,0,0,0,0,0
0.368,-3.75,0,0,0,0,0
0.369,-3.75,0,0,0,0,0
0.37,-3.75,0,0,0,0,0
0.371,-3.75,0,0,0,0,0
0.372,-3.75,0,0,0,0,0
0.373,-3.75,0,0,0,0,0
0.374,-3.75,0,0,0,0,0
0.375,-3.75,0,0,0,0,0
0.376,-3.4375,0,0,0,0,0
0.377,-3.125,0,0,0,0,0
0.378,-3.125,0,0,0,0,0
0.379,-3.125,0,0,0,0,0
0.38,-3.4375,0,0,0,0,0
0.381,-3.75,0,0,0,0,0
0.382,-3.75,0,0,0,0,0
0.383,-3.75,0,0,0,0,0
0.384,-3.75,0,0,0,0,0
0.385,-3.75,0,0,0,0,0
0.386,-3.4375,0,0,0,0,0
0.387,-3.125,0,0,0,0,0
0.388,-3.125,0,0,0,0,0
0.389,-3.125,0,0,0,0,0
0.39,-2.8125,0,0,0,0,0
0.391,-3.125,0,0,0,0,0
0.392,-3.4375,0,0,0,0,0
0.393,-3.75,0,0,0,0,0
0.394,-3.125,0,0,0,0,0
0.395,-3.75,0,0,0,0,0
0.396,-4.0625,0,0,0,0,0
0.397,-4.375,0,0,0,0,0
0.398,-4.0625,0,0,0,0,0
0.399,-3.75,0,0,0,0,0
0.4,-3.75,0,0,0,0,0
0.401,-3.75,0,0,0,0,0
0.402,-3.4375,0,0,0,0,0
0.403,-3.75,0,0,0,0,0
0.404,-3.75,0,0,0,0,0
0.405,-3.125,0,0,0,0,0
0.406,-3.125,0,0,0,0,0
0.407,-3.125,0,0,0,0,0
0.408,-3.4375,0,0,0,0,0
0.409,-3.75,0,0,0,0,0
0.41,-3.4375,0,0,0,0,0
0.411,-3.75,0,0,0,0,0
0.412,-3.75,0,0,0,0,0
0.413,-3.125,0,0,0,0,0
0.414,-3.4375,0,0,0,0,0
0.415,-3.125,0,0,0,0,0
0.416,-3.4375,0,0,0,0,0
0.417,-3.125,0,0,0,0,0
0.418,-4.0625,0,0,0,0,0
0.419,-4.375,0,0,0,0,0
0.42,-4.375,0,0,0,0,0
0.421,-4.375,0,0,0,0,0
0.422,-4.375,0,0,0,0,0
0.423,-4.375,0,0,0,0,0
0.424,-4.375,0,0,0,0,0
0.425,-4.375,0,0,0,0,0
0.426,-4.375,0,0,0,0,0
0.427,-4.375,0,0,0,0,0
0.428,-5,0,0,0,0,0
0.429,-5.625,0,0,0,0,0
0.43,-5.625,0,0,0,0,0
0.431,-5,0,0,0,0,0
0.432,-5.3125,0,0,0,0,0
0.433,-5,0,0,0,0,0
0.434,-4.0625,0,0,0,0,0
0.435,-4.375,0,0,0,0,0
0.436,-4.375,0,0,0,0,0
0.437,-4.375,0,0,0,0,0
0.438,-4.375,0,0,0,0,0
0.439,-4.375,0,0,0,0,0
0.44,-5,0,0,0,0,0
0.441,-5,0,0,0,0,0
0.442,-4.6875,0,0,0,0,0
0.443,-5,0,0,0,0,0
0.444,-4.6875,0,0,0,0,0
0.445,-4.375,0,0,0,0,0
0.446,-4.0625,0,0,0,0,0
0.447,-3.75,0,0,0,0,0
0.448,-3.75,0,0,0,0,0
0.449,-3.75,0,0,0,0,0
0.45,-4.375,0,0,0,0,0
0.451,-4.375,0,0,0,0,0
0.452,-4.6875,0,0,0,0,0
0.453,-4.375,0,0,0,0,0
0.454,-4.375,0,0,0,0,0
0.455,-4.375,0,0,0,0,0
0.456,-5,0,0,0,0,0
0.457,-5,0,0,0,0,0
0.458,-3.75,0,0,0,0,0
0.459,-3.75,0,0,0,0,0
0.46,-4.0625,0,0,0,0,0
0.461,-3.75,0,0,0,0,0
0.462,-3.75,0,0,0,0,0
0.463,-4.375,0,0,0,0,0
0.464,-4.375,0,0,0,0,0
0.465,-4.375,0,0,0,0,0
0.466,-4.375,0,0,0,0,0
0.467,-4.375,0,0,0,0,0
0.468,-4.6875,0,0,0,0,0
0.469,-5,0,0,0,0,0
0.47,-4.6875,0,0,0,0,0
0.471,-4.375,0,0,0,0,0
0.472,-5,0,0,0,0,0
0.473,-5,0,0,0,0,0
0.474,-4.6875,0,0,0,0,0
0.475,-5,0,0,0,0,0
0.476,-5,0,0,0,0,0
0.477,-5.625,0,0,0,0,0
0.478,-5.625,0,0,0,0,0
0.479,-5.625,0,0,0,0,0
0.48,-5.3125,0,0,0,0,0
0.481,-5,0,0,0,0,0
0.482,-4.6875,0,0,0,0,0
0.483,-5,0,0,0,0,0
0.484,-4.6875,0,0,0,0,0
0.485,-4.375,0,0,0,0,0
0.486,-4.375,0,0,0,0,0
0.487,-4.375,0,0,0,0,0
0.488,-4.6875,0,0,0,0,0
0.489,-4.375,0,0,0,0,0
0.49,-5,0,0,0,0,0
0.491,-5,0,0,0,0,0
0.492,-5,0,0,0,0,0
0.493,-5,0,0,0,0,0
0.494,-5.3125,0,0,0,0,0
0.495,-5.625,0,0,0,0,0
0.496,-5.625,0,0,0,0,0
0.497,-5.625,0,0,0,0,0
0.498,-5.3125,0,0,0,0,0
0.499,-5.625,0,0,0,0,0
0.5,-5.3125,0,0,0,0,0
0.501,-6.25,0,0,0,0,0
0.502,-6.25,0,0,0,0,0
0.503,-5.625,0,0,0,0,0
0.504,-5.625,0,0,0,0,0
0.505,-5.625,0,0,0,0,0
0.506,-5,0,0,0,0,0
0.507,-5,0,0,0,0,0
0.508,-5.625,0,0,0,0,0
0.509,-5.625,0,0,0,0,0
0.51,-5,0,0,0,0,0
0.511,-5,0,0,0,0,0
0.512,-5.625,0,0,0,0,0
0.513,-5.625,0,0,0,0,0
0.514,-4.6875,0,0,0,0,0
0.515,-5,0,0,0,0,0
0.516,-5.3125,0,0,0,0,0
0.517,-5.625,0,0,0,0,0
0.518,-5.625,0,0,0,0,0
0.519,-5.625,0,0,0,0,0
0.52,-5.3125,0,0,0,0,0
0.521,-5,0,0,0,0,0
0.522,-5.3125,0,0,0,0,0
0.523,-5,0,0,0,0,0
0.524,-5.625,0,0,0,0,0
0.525,-5.625,0,0,0,0,0
0.526,-5.3125,0,0,0,0,0
0.527,-5,0,0,0,0,0
0.528,-5.9375,0,0,0,0,0
0.529,-5.625,0,0,0,0,0
0.53,-5.3125,0,0,0,0,0
0.531,-5,0,0,0,0,0
0.532,-5,0,0,0,0,0
0.533,-5,0,0,0,0,0
0.534,-5,0,0,0,0,0
0.535,-5.625,0,0,0,0,0
0.536,-5.3125,0,0,0,0,0
0.537,-5.625,0,0,0,0,0
0.538,-5.9375,0,0,0,0,0
0.539,-5.625,0,0,0,0,0
0.54,-5.3125,0,0,0,0,0
0.541,-5,0,0,0,0,0
0.542,-5.625,0,0,0,0,0
0.543,-5.625,0,0,0,0,0
0.544,-5,0,0,0,0,0
0.545,-5,0,0,0,0,0
0.546,-5,0,0,0,0,0
0.547,-5,0,0,0,0,0
0.548,-5,0,0,0,0,0
0.549,-5.625,0,0,0,0,0
0.55,-5.3125,0,0,0,0,0
0.551,-5.625,0,0,0,0,0
0.552,-5.3125,0,0,0,0,0
0.553,-5,0,0,0,0,0
0.554,-5.625,0,0,0,0,0
0.555,-5.625,0,0,0,0,0
0.556,-5.625,0,0,0,0,0
0.557,-5.625,0,0,0,0,0
0.558,-5.625,0,0,0,0,0
0.559,-5.625,0,0,0,0,0
0.56,-5.3125,0,0,0,0,0
0.561,-5,0,0,0,0,0
0.562,-5.3125,0,0,0,0,0
0.563,-5.625,0,0,0,0,0
0.564,-5.9375,0,0,0,0,0
0.565,-5.625,0,0,0,0,0
0.566,-5.3125,0,0,0,0,0
0.567,-5.625,0,0,0,0,0
0.568,-5.625,0,0,0,0,0
0.569,-6.25,0,0,0,0,0
0.57,-6.5625,0,0,0,0,0
0.571,-6.875,0,0,0,0,0
0.572,-6.5625,0,0,0,0,0
0.573,-6.25,0,0,0,0,0
0.574,-6.25,0,0,0,0,0
0.575,-6.25,0,0,0,0,0
0.576,-6.25,0,0,0,0,0
0.577,-6.25,0,0,0,0,0
0.578,-5.9375,0,0,0,0,0
0.579,-5.625,0,0,0,0,0
0.58,-5.9375,0,0,0,0,0
0.581,-5,0,0,0,0,0
0.582,-5,0,0,0,0,0
0.583,-5.625,0,0,0,0,0
0.584,-5.3125,0,0,0,0,0
0.585,-5,0,0,0,0,0
0.586,-5,0,0,0,0,0
0.587,-5,0,0,0,0,0
0.588,-4.6875,0,0,0,0,0
0.589,-4.375,0,0,0,0,0
0.59,-4.375,0,0,0,0,0
0.591,-4.375,0,0,0,0,0
0.592,-4.375,0,0,0,0,0
0.593,-4.375,0,0,0,0,0
0.594,-4.375,0,0,0,0,0
0.595,-4.375,0,0,0,0,0
0.596,-5.625,0,0,0,0,0
0.597,-5.625,0,0,0,0,0
0.598,-5.625,0,0,0,0,0
0.599,-5.625,0,0,0,0,0
0.6,-5.625,0,0,0,0,0
0.601,-5.625,0,0,0,0,0
0.602,-5.9375,0,0,0,0,0
0.603,-6.25,0,0,0,0,0
0.604,-5.3125,0,0,0,0,0
0.605,-5,0,0,0,0,0
0.606,-4.6875,0,0,0,0,0
0.607,-4.375,0,0,0,0,0
0.608,-5,0,0,0,0,0
0.609,-5,0,0,0,0,0
0.61,-5,0,0,0,0,0
0.611,-5,0,0,0,0,0
0.612,-5,0,0,0,0,0
0.613,-5,0,0,0,0,0
0.614,-5,0,0,0,0,0
0.615,-5,0,0,0,0,0
0.616,-5.3125,0,0,0,0,0
0.617,-5.625,0,0,0,0,0
0.618,-5.625,0,0,0,0,0
0.619,-5.625,0,0,0,0,0
0.62,-5.625,0,0,0,0,0
0.621,-5.625,0,0,0,0,0
0.622,-5.9375,0,0,0,0,0
0.623,-6.25,0,0,0,0,0
0.624,-5.9375,0,0,0,0,0
0.625,-5.625,0,0,0,0,0
0.626,-5.3125,0,0,0,0,0
0.627,-5,0,0,0,0,0
0.628,-5.9375,0,0,0,0,0
0.629,-6.25,0,0,0,0,0
0.63,-5.9375,0,0,0,0,0
0.631,-6.25,0,0,0,0,0
0.632,-5.625,0,0,0,0,0
0.633,-5,0,0,0,0,0
0.634,-4.375,0,0,0,0,0
0.635,-4.375,0,0,0,0,0
0.636,-4.6875,0,0,0,0,0
0.637,-5.625,0,0,0,0,0
0.638,-4.6875,0,0,0,0,0
0.639,-4.375,0,0,0,0,0
0.64,-5.3125,0,0,0,0,0
0.641,-5.625,0,0,0,0,0
0.642,-5,0,0,0,0,0
0.643,-5.625,0,0,0,0,0
0.644,-5.3125,0,0,0,0,0
0.645,-5.625,0,0,0,0,0
0.646,-5.3125,0,0,0,0,0
0.647,-5.625,0,0,0,0,0
0.648,-5.9375,0,0,0,0,0
0.649,-6.25,0,0,0,0,0
0.65,-6.25,0,0,0,0,0
0.651,-5.625,0,0,0,0,0
0.652,-5.3125,0,0,0,0,0
0.653,-4.375,0,0,0,0,0
0.654,-4.0625,0,0,0,0,0
0.655,-3.75,0,0,0,0,0
0.656,-3.75,0,0,0,0,0
0.657,-3.75,0,0,0,0,0
0.658,-3.4375,0,0,0,0,0
0.659,-3.125,0,0,0,0,0
0.66,-3.125,0,0,0,0,0
0.661,-2.5,0,0,0,0,0
0.662,-2.8125,0,0,0,0,0
0.663,-2.5,0,0,0,0,0
0.664,-3.125,0,0,0,0,0
0.665,-3.125,0,0,0,0,0
0.666,-1.875,0,0,0,0,0
0.667,-1.875,0,0,0,0,0
0.668,-2.1875,0,0,0,0,0
0.669,-2.5,0,0,0,0,0
0.67,-2.1875,0,0,0,0,0
0.671,-2.5,0,0,0,0,0
0.672,-2.1875,0,0,0,0,0
0.673,-1.875,0,0,0,0,0
0.674,-1.875,0,0,0,0,0
0.675,-1.875,0,0,0,0,0
0.676,-2.1875,0,0,0,0,0
0.677,-2.5,0,0,0,0,0
0.678,-2.5,0,0,0,0,0
0.679,-2.5,0,0,0,0,0
0.68,-2.5,0,0,0,0,0
0.681,-2.5,0,0,0,0,0
0.682,-2.5,0,0,0,0,0
0.683,-2.5,0,0,0,0,0
0.684,-2.8125,0,0,0,0,0
0.685,-3.125,0,0,0,0,0
0.686,-2.5,0,0,0,0,0
0.687,-1.875,0,0,0,0,0
0.688,-2.5,0,0,0,0,0
0.689,-2.5,0,0,0,0,0
0.69,-2.5,0,0,0,0,0
0.691,-2.5,0,0,0,0,0
0.692,-1.5625,0,0,0,0,0
0.693,-0.625,0,0,0,0,0
0.694,-0.3125,0,0,0,0,0
0.695,0,0,0,0,0,0
0.696,-1.5625,0,0,0,0,0
0.697,-2.5,0,0,0,0,0
0.698,-2.1875,0,0,0,0,0
0.699,-2.5,0,0,0,0,0
0.7,-2.5,0,0,0,0,0
0.701,-1.875,0,0,0,0,0
0.702,-1.875,0,0,0,0,0
0.703,-1.875,0,0,0,0,0
0.704,-2.1875,0,0,0,0,0
0.705,-1.875,0,0,0,0,0
0.706,-0.9375,0,0,0,0,0
0.707,-0.625,0,0,0,0,0
0.708,0,0,0,0,0,0
0.709,0,0,0,0,0,0
0.71,0.3125,0,0,0,0,0
0.711,0.625,0,0,0,0,0
0.712,0.3125,0,0,0,0,0
0.713,-0.625,0,0,0,0,0
0.714,-0.3125,0,0,0,0,0
0.715,-0.625,0,0,0,0,0
0.716,-1.5625,0,0,0,0,0
0.717,-1.875,0,0,0,0,0
0.718,-1.25,0,0,0,0,0
0.719,-1.25,0,0,0,0,0
0.72,-1.875,0,0,0,0,0
0.721,-1.875,0,0,0,0,0
0.722,-2.5,0,0,0,0,0
0.723,-2.5,0,0,0,0,0
0.724,-2.5,0,0,0,0,0
0.725,-3.125,0,0,0,0,0
0.726,-2.5,0,0,0,0,0
0.727,-2.5,0,0,0,0,0
0.728,-2.8125,0,0,0,0,0
0.729,-3.125,0,0,0,0,0
0.73,-4.0625,0,0,0,0,0
0.731,-4.375,0,0,0,0,0
0.732,-4.375,0,0,0,0,0
0.733,-4.375,0,0,0,0,0
0.734,-4.6875,0,0,0,0,0
0.735,-4.375,0,0,0,0,0
0.736,-4.6875,0,0,0,0,0
0.737,-4.375,0,0,0,0,0
0.738,-5,0,0,0,0,0
0.739,-5,0,0,0,0,0
0.74,-5.3125,0,0,0,0,0
0.741,-5,0,0,0,0,0
0.742,-5,0,0,0,0,0
0.743,-5,0,0,0,0,0
0.744,-5,0,0,0,0,0
0.745,-5,0,0,0,0,0
0.746,-4.6875,0,0,0,0,0
0.747,-4.375,0,0,0,0,0
0.748,-5,0,0,0,0,0
0.749,-4.375,0,0,0,0,0
0.75,-3.75,0,0,0,0,0
0.751,-4.375,0,0,0,0,0
0.752,-4.375,0,0,0,0,0
0.753,-3.75,0,0,0,0,0
0.754,-3.75,0,0,0,0,0
0.755,-3.125,0,0,0,0,0
0.756,-3.125,0,0,0,0,0
0.757,-3.125,0,0,0,0,0
0.758,-3.4375,0,0,0,0,0
0.759,-3.125,0,0,0,0,0
0.76,-3.125,0,0,0,0,0
0.761,-3.125,0,0,0,0,0
0.762,-3.75,0,0,0,0,0
0.763,-3.75,0,0,0,0,0
0.764,-4.0625,0,0,0,0,0
0.765,-4.375,0,0,0,0,0
0.766,-4.375,0,0,0,0,0
0.767,-4.375,0,0,0,0,0
0.768,-4.375,0,0,0,0,0
0.769,-4.375,0,0,0,0,0
0.77,-4.375,0,0,0,0,0
0.771,-4.375,0,0,0,0,0
0.772,-4.375,0,0,0,0,0
0.773,-5,0,0,0,0,0
0.774,-4.6875,0,0,0,0,0
0.775,-4.375,0,0,0,0,0
0.776,-5.3125,0,0,0,0,0
0.777,-5.625,0,0,0,0,0
0.778,-5.625,0,0,0,0,0
0.779,-5.625,0,0,0,0,0
0.78,-5.3125,0,0,0,0,0
0.781,-5,0,0,0,0,0
0.782,-5,0,0,0,0,0
0.783,-5,0,0,0,0,0
0.784,-5,0,0,0,0,0
0.785,-5,0,0,0,0,0
0.786,-5.3125,0,0,0,0,0
0.787,-5.625,0,0,0,0,0
0.788,-5.9375,0,0,0,0,0
0.789,-6.25,0,0,0,0,0
0.79,-6.25,0,0,0,0,0
0.791,-6.25,0,0,0,0,0
0.792,-5.9375,0,0,0,0,0
0.793,-5.625,0,0,0,0,0
0.794,-5.3125,0,0,0,0,0
0.795,-5,0,0,0,0,0
0.796,-5.625,0,0,0,0,0
0.797,-5.625,0,0,0,0,0
0.798,-5,0,0,0,0,0
0.799,-4.375,0,0,0,0,0
0.8,-4.6875,0,0,0,0,0
0.801,-3.75,0,0,0,0,0
0.802,-3.75,0,0,0,0,0
0.803,-3.75,0,0,0,0,0
0.804,-4.6875,0,0,0,0,0
0.805,-5,0,0,0,0,0
0.806,-4.6875,0,0,0,0,0
0.807,-4.375,0,0,0,0,0
0.808,-3.4375,0,0,0,0,0
0.809,-3.75,0,0,0,0,0
0.81,-4.0625,0,0,0,0,0
0.811,-4.375,0,0,0,0,0
0.812,-4.375,0,0,0,0,0
0.813,-3.75,0,0,0,0,0
0.814,-4.6875,0,0,0,0,0
0.815,-5,0,0,0,0,0
0.816,-4.6875,0,0,0,0,0
0.817,-5,0,0,0,0,0
0.818,-4.375,0,0,0,0,0
0.819,-4.375,0,0,0,0,0
0.82,-4.6875,0,0,0,0,0
0.821,-5,0,0,0,0,0
0.822,-5.3125,0,0,0,0,0
0.823,-5.625,0,0,0,0,0
0.824,-6.25,0,0,0,0,0
0.825,-6.25,0,0,0,0,0
0.826,-5.9375,0,0,0,0,0
0.827,-5.625,0,0,0,0,0
0.828,-5.3125,0,0,0,0,0
0.829,-5,0,0,0,0,0
0.83,-5,0,0,0,0,0
0.831,-5,0,0,0,0,0
0.832,-4.6875,0,0,0,0,0
0.833,-4.375,0,0,0,0,0
0.834,-4.6875,1,0,0,0,0
0.835,-5,0,0,0,0,0
0.836,-4.6875,0,0,0,0,0
0.837,-5,0,0,0,0,0
0.838,-4.375,0,0,0,0,0
0.839,-4.375,0,0,0,0,0
0.84,-3.4375,0,0,0,0,0
0.841,-2.5,0,0,0,0,0
0.842,-2.8125,0,0,0,0,0
0.843,-2.5,0,0,0,0,0
0.844,-1.875,0,0,0,0,0
0.845,-2.5,0,0,0,0,0
0.846,-1.875,0,0,0,0,0
0.847,-1.25,0,0,0,0,0
0.848,-1.25,0,0,0,0,0
0.849,-0.625,0,0,0,0,0
0.85,-0.3125,0,0,0,0,0
0.851,0,0,0,0,0,0
0.852,0.625,0,0,0,0,0
0.853,1.875,0,0,0,0,0
0.854,2.5,0,0,0,0,0
0.855,3.125,0,0,0,0,0
0.856,2.8125,0,0,0,0,0
0.857,3.125,0,0,0,0,0
0.858,3.75,0,0,0,0,0
0.859,5,0,0,0,0,0
0.86,5.9375,0,0,0,0,0
0.861,6.875,0,0,0,0,0
0.862,7.5,0,0,0,0,0
0.863,8.75,0,0,0,0,0
0.864,10.625,0,0,0,0,0
0.865,12.5,0,0,0,0,0
0.866,13.75,0,0,0,0,0
0.867,16.25,0,0,0,0,0
0.868,18.125,0,0,0,0,0
0.869,20,0,0,0,0,0
0.87,22.5,0,0,0,0,0
0.871,26.25,0,0,0,0,0
0.872,30.313,0,0,0,0,0
0.873,33.75,0,0,0,0,0
0.874,37.188,0,0,0,0,0
0.875,40.625,0,0,0,0,0
0.876,44.063,0,0,0,0,0
0.877,46.875,0,0,0,0,0
0.878,50.938,0,0,0,0,0
0.879,55,0,0,0,0,0
0.88,59.375,0,0,0,0,0
0.881,62.5,0,0,0,0,0
0.882,65.313,0,0,0,0,0
0.883,68.75,0,0,0,0,0
0.884,70.938,0,1,0,0,0
0.885,71.25,0,0,0,0,0
0.886,71.563,0,0,0,0,0
0.887,71.25,0,0,0,0,0
0.888,70,0,0,0,0,0
0.889,68.125,0,0,0,0,0
0.89,65.625,0,0,0,0,0
0.891,63.125,0,0,0,0,0
0.892,59.063,0,0,0,0,0
0.893,53.75,0,0,0,0,0
0.894,46.25,0,0,0,0,0
0.895,38.75,0,0,0,0,0
0.896,28.75,0,0,0,0,0
0.897,16.25,0,0,0,0,0
0.898,5,0,0,0,0,0
0.899,-4.375,0,0,0,0,0
0.9,-13.125,0,0,0,0,0
0.901,-21.875,0,0,0,0,0
0.902,-32.188,0,0,0,0,0
0.903,-43.125,0,0,0,0,0
0.904,-53.438,0,0,0,0,0
0.905,-61.875,0,0,0,0,0
0.906,-65.625,0,0,0,0,0
0.907,-66.875,0,0,0,0,0
0.908,-68.75,0,0,0,0,0
0.909,-68.125,0,0,0,0,0
0.91,-66.875,0,0,0,0,0
0.911,-65,0,0,0,0,0
0.912,-61.875,0,0,0,0,0
0.913,-59.375,0,0,0,0,0
0.914,-57.5,0,0,0,0,0
0.915,-55,0,0,0,0,0
0.916,-52.5,0,0,0,0,0
0.917,-48.125,0,0,0,0,0
0.918,-44.688,0,0,0,0,0
0.919,-41.25,0,0,0,0,0
0.92,-37.5,0,0,0,0,0
0.921,-33.75,0,0,0,0,0
0.922,-30.625,0,0,0,0,0
0.923,-27.5,0,0,0,0,0
0.924,-24.375,0,0,0,0,0
0.925,-22.5,0,0,0,0,0
0.926,-19.688,0,0,0,0,0
0.927,-18.75,0,0,0,0,0
0.928,-16.563,0,0,0,0,0
0.929,-15,0,0,0,0,0
0.93,-13.125,0,0,0,0,0
0.931,-11.25,0,0,0,0,0
0.932,-10,0,0,0,0,0
0.933,-9.375,0,0,0,0,0
0.934,-8.125,0,0,0,0,0
0.935,-7.5,0,0,0,0,0
0.936,-6.875,0,0,0,0,0
0.937,-6.25,0,0,0,0,0
0.938,-5.625,0,0,0,0,0
0.939,-5,0,0,1,0,0
0.94,-3.75,0,0,0,0,0
0.941,-3.125,0,0,0,0,0
0.942,-3.125,0,0,0,0,0
0.943,-3.125,0,0,0,0,0
0.944,-3.125,0,0,0,0,0
0.945,-3.125,0,0,0,0,0
0.946,-2.8125,0,0,0,0,0
0.947,-3.125,0,0,0,0,0
0.948,-3.125,0,0,0,0,0
0.949,-3.125,0,0,0,0,0
0.95,-2.1875,0,0,0,0,0
0.951,-2.5,0,0,0,0,0
0.952,-1.875,0,0,0,0,0
0.953,-1.875,0,0,0,0,0
0.954,-1.875,0,0,0,0,0
0.955,-1.875,0,0,0,0,0
0.956,-2.1875,0,0,0,0,0
0.957,-2.5,0,0,0,0,0
0.958,-2.8125,0,0,0,0,0
0.959,-2.5,0,0,0,0,0
0.96,-1.875,0,0,0,0,0
0.961,-1.875,0,0,0,0,0
0.962,-2.1875,0,0,0,0,0
0.963,-1.875,0,0,0,0,0
0.964,-1.5625,0,0,0,0,0
0.965,-1.25,0,0,0,0,0
0.966,-1.5625,0,0,0,0,0
0.967,-1.25,0,0,0,0,0
0.968,-0.3125,0,0,0,0,0
0.969,0,0,0,0,0,0
0.97,-0.3125,0,0,0,0,0
0.971,-0.625,0,0,0,0,0
0.972,-0.3125,0,0,0,0,0
0.973,0,0,0,0,0,0
0.974,-0.9375,0,0,0,0,0
0.975,0,0,0,0,0,0
0.976,0,0,0,0,0,0
0.977,0,0,0,0,0,0
0.978,0,0,0,0,0,0
0.979,0,0,0,0,0,0
0.98,0,0,0,0,0,0
0.981,0,0,0,0,0,0
0.982,-0.3125,0,0,0,0,0
0.983,-0.625,0,0,0,0,0
0.984,-0.625,0,0,0,0,0
0.985,-0.625,0,0,0,0,0
0.986,-0.9375,0,0,0,0,0
0.987,-0.625,0,0,0,0,0
0.988,-1.5625,0,0,0,0,0
0.989,-1.25,0,0,0,0,0
0.99,-1.25,0,0,0,0,0
0.991,-1.25,0,0,0,0,0
0.992,-0.625,0,0,0,0,0
0.993,-0.625,0,0,0,0,0
0.994,0.3125,0,0,0,0,0
0.995,0,0,0,0,0,0
0.996,0,0,0,0,0,0
0.997,0.625,0,0,0,0,0
0.998,1.25,0,0,0,0,0
0.999,0.625,0,0,0,0,0
1,0.625,0,0,0,0,0
1.001,0.625,0,0,0,0,0
1.002,0.625,0,0,0,0,0
1.003,0.625,0,0,0,0,0
1.004,0.3125,0,0,0,0,0
1.005,0,0,0,0,0,0
1.006,0.625,0,0,0,0,0
1.007,0.625,0,0,0,0,0
1.008,0.625,0,0,0,0,0
1.009,1.25,0,0,0,0,0
1.01,0.625,0,0,0,0,0
1.011,0.625,0,0,0,0,0
1.012,0.9375,0,0,0,0,0
1.013,0.625,0,0,0,0,0
1.014,0.625,0,0,0,0,0
1.015,0.625,0,0,0,0,0
1.016,0.625,0,0,0,0,0
1.017,0.625,0,0,0,0,0
1.018,0.625,0,0,0,0,0
1.019,0.625,0,0,0,0,0
1.02,0.3125,0,0,0,0,0
1.021,0.625,0,0,0,0,0
1.022,-0.3125,0,0,0,0,0
1.023,-0.625,0,0,0,0,0
1.024,0,0,0,0,0,0
1.025,0,0,0,0,0,0
1.026,0.3125,0,0,0,0,0
1.027,0.625,0,0,0,0,0
1.028,0.625,0,0,0,0,0
1.029,0.625,0,0,0,0,0
1.03,0.625,0,0,0,0,0
1.031,0,0,0,0,0,0
1.032,0.9375,0,0,0,0,0
1.033,1.25,0,0,0,0,0
1.034,1.5625,0,0,0,0,0
1.035,1.875,0,0,0,0,0
1.036,0.9375,0,0,0,0,0
1.037,1.25,0,0,0,0,0
1.038,0.9375,0,0,0,0,0
1.039,0.625,0,0,0,0,0
1.04,0.625,0,0,0,0,0
1.041,0.625,0,0,0,0,0
1.042,1.25,0,0,0,0,0
1.043,1.25,0,0,0,0,0
1.044,1.25,0,0,0,0,0
1.045,1.25,0,0,0,0,0
1.046,1.5625,0,0,0,0,0
1.047,2.5,0,0,0,0,0
1.048,2.1875,0,0,0,0,0
1.049,2.5,0,0,0,0,0
1.05,3.125,0,0,0,0,0
1.051,2.5,0,0,0,0,0
1.052,2.1875,0,0,0,0,0
1.053,1.875,0,0,0,0,0
1.054,2.8125,0,0,0,0,0
1.055,3.125,0,0,0,0,0
1.056,2.8125,0,0,0,0,0
1.057,2.5,0,0,0,0,0
1.058,2.5,0,0,0,0,0
1.059,1.875,0,0,0,0,0
1.06,2.5,0,0,0,0,0
1.061,2.5,0,0,0,0,0
1.062,2.5,0,0,0,0,0
1.063,2.5,0,0,0,0,0
1.064,2.8125,0,0,0,0,0
1.065,3.125,0,0,0,0,0
1.066,3.125,0,0,0,0,0
1.067,3.125,0,0,0,0,0
1.068,3.125,0,0,0,0,0
1.069,3.75,0,0,0,0,0
1.07,3.75,0,0,0,0,0
1.071,3.75,0,0,0,0,0
1.072,3.75,0,0,0,0,0
1.073,3.75,0,0,0,0,0
1.074,4.375,0,0,0,0,0
1.075,4.375,0,0,0,0,0
1.076,3.125,0,0,0,0,0
1.077,3.125,0,0,0,0,0
1.078,2.8125,0,0,0,0,0
1.079,2.5,0,0,0,0,0
1.08,2.8125,0,0,0,0,0
1.081,3.125,0,0,0,0,0
1.082,3.125,0,0,0,0,0
1.083,3.125,0,0,0,0,0
1.084,2.8125,0,0,0,0,0
1.085,3.125,0,0,0,0,0
1.086,3.4375,0,0,0,0,0
1.087,3.75,0,0,0,0,0
1.088,3.75,0,0,0,0,0
1.089,3.75,0,0,0,0,0
1.09,4.375,0,0,0,0,0
1.091,5,0,0,0,0,0
1.092,4.6875,0,0,0,0,0
1.093,5,0,0,0,0,0
1.094,5,0,0,0,0,0
1.095,5,0,0,0,0,0
1.096,5.3125,0,0,0,0,0
1.097,5.625,0,0,0,0,0
1.098,5.625,0,0,0,0,0
1.099,5.625,0,0,0,0,0
1.1,5.3125,0,0,0,0,0
1.101,5.625,0,0,0,0,0
1.102,5,0,0,0,0,0
1.103,5,0,0,0,0,0
1.104,5.3125,0,0,0,0,0
1.105,5.625,0,0,0,0,0
1.106,5.3125,0,0,0,0,0
1.107,5.625,0,0,0,0,0
1.108,5.9375,0,0,0,0,0
1.109,5.625,0,0,0,0,0
1.11,5.9375,0,0,0,0,0
1.111,5.625,0,0,0,0,0
1.112,5.9375,0,0,0,0,0
1.113,6.25,0,0,0,0,0
1.114,6.5625,0,0,0,0,0
1.115,6.875,0,0,0,0,0
1.116,6.5625,0,0,0,0,0
1.117,6.875,0,0,0,0,0
1.118,6.25,0,0,0,0,0
1.119,6.875,0,0,0,0,0
1.12,7.1875,0,0,0,0,0
1.121,8.125,0,0,0,0,0
1.122,8.4375,0,0,0,0,0
1.123,8.75,0,0,0,0,0
1.124,8.4375,0,0,0,0,0
1.125,8.75,0,0,0,0,0
1.126,9.0625,0,0,0,0,0
1.127,9.375,0,0,0,0,0
1.128,9.375,0,0,0,0,0
1.129,9.375,0,0,0,0,0
1.13,9.6875,0,0,0,0,0
1.131,9.375,0,0,0,0,0
1.132,9.0625,0,0,0,0,0
1.133,9.375,0,0,0,0,0
1.134,9.6875,0,0,0,0,0
1.135,10,0,0,0,0,0
1.136,10,0,0,0,0,0
1.137,10.625,0,0,0,0,0
1.138,9.6875,0,0,0,0,0
1.139,10,0,0,0,0,0
1.14,10.313,0,0,0,0,0
1.141,10.625,0,0,0,0,0
1.142,10.313,0,0,0,0,0
1.143,10.625,0,0,0,0,0
1.144,10.625,0,0,0,0,0
1.145,10.625,0,0,0,0,0
1.146,11.563,0,0,0,0,0
1.147,11.875,0,0,0,0,0
1.148,11.875,0,0,0,0,0
1.149,11.875,0,0,0,0,0
1.15,11.875,0,0,0,0,0
1.151,11.875,0,0,0,0,0
1.152,12.5,0,0,0,0,0
1.153,12.5,0,0,0,0,0
1.154,12.188,0,0,0,0,0
1.155,11.875,0,0,0,0,0
1.156,11.563,0,0,0,0,0
1.157,11.875,0,0,0,0,0
1.158,12.188,0,0,0,0,0
1.159,12.5,0,0,0,0,0
1.16,13.438,0,0,0,0,0
1.161,13.75,0,0,0,0,0
1.162,12.813,0,0,0,0,0
1.163,13.125,0,0,0,0,0
1.164,13.125,0,0,0,0,0
1.165,13.125,0,0,0,0,0
1.166,13.125,0,0,0,0,0
1.167,13.125,0,0,0,0,0
1.168,12.813,0,0,0,0,0
1.169,12.5,0,0,0,0,0
1.17,13.438,0,0,0,0,0
1.171,13.75,0,0,0,0,0
1.172,13.75,0,0,0,0,0
1.173,14.375,0,0,0,0,0
1.174,14.688,0,0,0,0,0
1.175,14.375,0,0,0,0,0
1.176,14.375,0,0,0,0,0
1.177,14.375,0,0,0,0,0
1.178,14.063,0,0,0,0,0
1.179,14.375,0,0,0,0,0
1.18,14.375,0,0,0,0,0
1.181,14.375,0,0,0,0,0
1.182,14.688,0,0,0,0,0
1.183,15,0,0,0,0,0
1.184,14.688,0,0,0,0,0
1.185,14.375,0,0,0,0,0
1.186,14.688,0,0,0,0,0
1.187,14.375,0,0,0,0,0
1.188,14.375,0,0,0,0,0
1.189,14.375,0,0,0,0,0
1.19,14.375,0,0,0,0,0
1.191,14.375,0,0,0,0,0
1.192,15,0,0,0,0,0
1.193,15,0,0,0,0,0
1.194,14.375,0,0,0,1,0
1.195,14.375,0,0,0,0,0
1.196,14.375,0,0,0,0,0
1.197,14.375,0,0,0,0,0
1.198,15,0,0,0,0,0
1.199,15.625,0,0,0,0,0
1.2,15.313,0,0,0,0,0
1.201,15.625,0,0,0,0,0
1.202,15,0,0,0,0,0
1.203,15,0,0,0,0,0
1.204,15,0,0,0,0,0
1.205,15,0,0,0,0,0
1.206,14.688,0,0,0,0,0
1.207,14.375,0,0,0,0,0
1.208,14.688,0,0,0,0,0
1.209,14.375,0,0,0,0,0
1.21,14.375,0,0,0,0,0
1.211,13.75,0,0,0,0,0
1.212,13.75,0,0,0,0,0
1.213,13.75,0,0,0,0,0
1.214,14.063,0,0,0,0,0
1.215,13.75,0,0,0,0,0
1.216,13.125,0,0,0,0,0
1.217,12.5,0,0,0,0,0
1.218,12.813,0,0,0,0,0
1.219,13.125,0,0,0,0,0
1.22,12.813,0,0,0,0,0
1.221,12.5,0,0,0,0,0
1.222,11.563,0,0,0,0,0
1.223,11.25,0,0,0,0,0
1.224,10.938,0,0,0,0,0
1.225,11.25,0,0,0,0,0
1.226,11.563,0,0,0,0,0
1.227,11.875,0,0,0,0,0
1.228,10.938,0,0,0,0,0
1.229,10.625,0,0,0,0,0
1.23,10,0,0,0,0,0
1.231,10,0,0,0,0,0
1.232,10,0,0,0,0,0
1.233,9.375,0,0,0,0,0
1.234,9.375,0,0,0,0,0
1.235,9.375,0,0,0,0,0
1.236,9.6875,0,0,0,0,0
1.237,9.375,0,0,0,0,0
1.238,9.375,0,0,0,0,0
1.239,9.375,0,0,0,0,0
1.24,8.75,0,0,0,0,0
1.241,8.75,0,0,0,0,0
1.242,8.4375,0,0,0,0,0
1.243,8.75,0,0,0,0,0
1.244,8.125,0,0,0,0,0
1.245,7.5,0,0,0,0,0
1.246,7.1875,0,0,0,0,0
1.247,6.875,0,0,0,0,0
1.248,7.1875,0,0,0,0,0
1.249,6.875,0,0,0,0,0
1.25,6.875,0,0,0,0,0
1.251,6.875,0,0,0,0,0
1.252,6.875,0,0,0,0,0
1.253,6.875,0,0,0,0,0
1.254,7.1875,0,0,0,0,0
1.255,6.875,0,0,0,0,0
1.256,6.5625,0,0,0,0,0
1.257,6.875,0,0,0,0,0
1.258,6.875,0,0,0,0,0
1.259,6.875,0,0,0,0,0
1.26,7.1875,0,0,0,0,0
1.261,6.875,0,0,0,0,0
1.262,6.5625,0,0,0,0,0
1.263,6.25,0,0,0,0,0
1.264,5.3125,0,0,0,0,0
1.265,5,0,0,0,0,0
1.266,4.6875,0,0,0,0,0
1.267,4.375,0,0,0,0,0
1.268,4.6875,0,0,0,0,0
1.269,5,0,0,0,0,0
1.27,5,0,0,0,0,0
1.271,4.375,0,0,0,0,0
1.272,3.75,0,0,0,0,0
1.273,3.75,0,0,0,0,0
1.274,4.6875,0,0,0,0,0
1.275,4.375,0,0,0,0,0
1.276,3.4375,0,0,0,0,0
1.277,3.75,0,0,0,0,0
1.278,3.125,0,0,0,0,0
1.279,3.125,0,0,0,0,0
1.28,3.4375,0,0,0,0,0
1.281,3.75,0,0,0,0,0
1.282,3.4375,0,0,0,0,0
1.283,3.125,0,0,0,0,0
1.284,3.125,0,0,0,0,0
1.285,3.125,0,0,0,0,0
1.286,3.4375,0,0,0,0,0
1.287,3.75,0,0,0,0,0
1.288,2.8125,0,0,0,0,0
1.289,2.5,0,0,0,0,0
1.29,1.875,0,0,0,0,0
1.291,1.875,0,0,0,0,0
1.292,1.5625,0,0,0,0,0
1.293,1.25,0,0,0,0,0
1.294,1.5625,0,0,0,0,0
1.295,1.875,0,0,0,0,0
1.296,1.875,0,0,0,0,0
1.297,1.875,0,0,0,0,0
1.298,1.875,0,0,0,0,0
1.299,1.875,0,0,0,0,1
1.3,2.1875,0,0,0,0,0
1.301,2.5,0,0,0,0,0
1.302,1.5625,0,0,0,0,0
1.303,1.25,0,0,0,0,0
1.304,1.25,0,0,0,0,0
1.305,1.25,0,0,0,0,0
1.306,1.25,0,0,0,0,0
1.307,1.25,0,0,0,0,0
1.308,1.5625,0,0,0,0,0
1.309,1.875,0,0,0,0,0
1.31,1.5625,0,0,0,0,0
1.311,0.625,0,0,0,0,0
1.312,0.625,0,0,0,0,0
1.313,0.625,0,0,0,0,0
1.314,0.625,0,0,0,0,0
1.315,0.625,0,0,0,0,0
1.316,0,0,0,0,0,0
1.317,0.625,0,0,0,0,0
1.318,0.625,0,0,0,0,0
1.319,1.25,0,0,0,0,0
1.32,0.9375,0,0,0,0,0
1.321,0.625,0,0,0,0,0
1.322,1.25,0,0,0,0,0
1.323,1.25,0,0,0,0,0
1.324,0.9375,0,0,0,0,0
1.325,0.625,0,0,0,0,0
1.326,0.3125,0,0,0,0,0
1.327,0.625,0,0,0,0,0
1.328,0.3125,0,0,0,0,0
1.329,0.625,0,0,0,0,0
1.33,0.625,0,0,0,0,0
1.331,0.625,0,0,0,0,0
1.332,0.625,0,0,0,0,0
1.333,0.625,0,0,0,0,0
1.334,0.9375,0,0,0,0,0
1.335,1.25,0,0,0,0,0
1.336,0,0,0,0,0,0
1.337,0,0,0,0,0,0
1.338,0.3125,0,0,0,0,0
1.339,0.625,0,0,0,0,0
1.34,-0.3125,0,0,0,0,0
1.341,0,0,0,0,0,0
1.342,-0.625,0,0,0,0,0
1.343,-0.625,0,0,0,0,0
1.344,-0.9375,0,0,0,0,0
1.345,-1.25,0,0,0,0,0
1.346,-0.3125,0,0,0,0,0
1.347,0,0,0,0,0,0
1.348,0.3125,0,0,0,0,0
1.349,0,0,0,0,0,0
1.35,0.3125,0,0,0,0,0
1.351,-0.625,0,0,0,0,0
1.352,0,0,0,0,0,0
1.353,0,0,0,0,0,0
1.354,0,0,0,0,0,0
1.355,0,0,0,0,0,0
1.356,-0.625,0,0,0,0,0
1.357,-0.625,0,0,0,0,0
1.358,-0.3125,0,0,0,0,0
1.359,0,0,0,0,0,0
1.36,0.3125,0,0,0,0,0
1.361,0.625,0,0,0,0,0
1.362,0.625,0,0,0,0,0
1.363,1.25,0,0,0,0,0
1.364,0.3125,0,0,0,0,0
1.365,0,0,0,0,0,0
1.366,0.3125,0,0,0,0,0
1.367,0.625,0,0,0,0,0
1.368,0.3125,0,0,0,0,0
1.369,0,0,0,0,0,0
1.37,0,0,0,0,0,0
1.371,0,0,0,0,0,0
1.372,-0.625,0,0,0,0,0
1.373,-1.25,0,0,0,0,0
1.374,-0.3125,0,0,0,0,0
1.375,0,0,0,0,0,0
1.376,-0.625,0,0,0,0,0
1.377,-0.625,0,0,0,0,0
1.378,-0.3125,0,0,0,0,0
1.379,0,0,0,0,0,0
1.38,0,0,0,0,0,0
1.381,0,0,0,0,0,0
1.382,0,0,0,0,0,0
1.383,0.625,0,0,0,0,0
1.384,0,0,0,0,0,0
1.385,0,0,0,0,0,0
1.386,0.3125,0,0,0,0,0
1.387,0.625,0,0,0,0,0
1.388,0.625,0,0,0,0,0
1.389,0.625,0,0,0,0,0
1.39,0,0,0,0,0,0
1.391,-0.625,0,0,0,0,0
1.392,0,0,0,0,0,0
1.393,0,0,0,0,0,0
1.394,0,0,0,0,0,0
1.395,-0.625,0,0,0,0,0
1.396,-0.625,0,0,0,0,0
1.397,-0.625,0,0,0,0,0
1.398,-0.625,0,0,0,0,0
1.399,-0.625,0,0,0,0,0
1.4,-0.3125,0,0,0,0,0
1.401,0,0,0,0,0,0
1.402,0,0,0,0,0,0
1.403,-0.625,0,0,0,0,0
1.404,0,0,0,0,0,0
1.405,0,0,0,0,0,0
1.406,-0.625,0,0,0,0,0
1.407,-0.625,0,0,0,0,0
1.408,-0.625,0,0,0,0,0
1.409,-0.625,0,0,0,0,0
1.41,-0.9375,0,0,0,0,0
1.411,-1.25,0,0,0,0,0
1.412,-0.3125,0,0,0,0,0
1.413,0,0,0,0,0,0
1.414,-0.625,0,0,0,0,0
1.415,0,0,0,0,0,0
1.416,-0.3125,0,0,0,0,0
1.417,0.625,0,0,0,0,0
1.418,0.3125,0,0,0,0,0
1.419,0,0,0,0,0,0
1.42,0.3125,0,0,0,0,0
1.421,0.625,0,0,0,0,0
1.422,0.3125,0,0,0,0,0
1.423,0,0,0,0,0,0
1.424,-0.625,0,0,0,0,0
1.425,-0.625,0,0,0,0,0
1.426,-0.9375,0,0,0,0,0
1.427,-1.25,0,0,0,0,0
1.428,-0.9375,0,0,0,0,0
1.429,-0.625,0,0,0,0,0
1.43,-0.625,0,0,0,0,0
1.431,-1.25,0,0,0,0,0
1.432,-0.625,0,0,0,0,0
1.433,-0.625,0,0,0,0,0
1.434,-0.625,0,0,0,0,0
1.435,-0.625,0,0,0,0,0
1.436,-0.9375,0,0,0,0,0
1.437,-0.625,0,0,0,0,0
1.438,-0.3125,0,0,0,0,0
1.439,-0.625,0,0,0,0,0
1.44,-0.3125,0,0,0,0,0
1.441,0,0,0,0,0,0
1.442,0,0,0,0,0,0
1.443,0,0,0,0,0,0
1.444,-0.3125,0,0,0,0,0
1.445,-0.625,0,0,0,0,0
1.446,-0.625,0,0,0,0,0
1.447,-0.625,0,0,0,0,0
1.448,-0.625,0,0,0,0,0
1.449,-1.25,0,0,0,0,0
1.45,-0.625,0,0,0,0,0
1.451,-0.625,0,0,0,0,0
1.452,-1.25,0,0,0,0,0
1.453,-1.25,0,0,0,0,0
1.454,-0.9375,0,0,0,0,0
1.455,-0.625,0,0,0,0,0
1.456,-0.9375,0,0,0,0,0
1.457,-1.25,0,0,0,0,0
1.458,-1.25,0,0,0,0,0
1.459,-1.25,0,0,0,0,0
1.46,-1.25,0,0,0,0,0
1.461,-1.25,0,0,0,0,0
1.462,-1.5625,0,0,0,0,0
1.463,-1.875,0,0,0,0,0
1.464,-1.875,0,0,0,0,0
1.465,-1.25,0,0,0,0,0
1.466,-0.9375,0,0,0,0,0
1.467,-0.625,0,0,0,0,0
1.468,-0.9375,0,0,0,0,0
1.469,-0.625,0,0,0,0,0
1.47,-0.9375,0,0,0,0,0
1.471,-1.25,0,0,0,0,0
1.472,-1.25,0,0,0,0,0
1.473,-1.25,0,0,0,0,0
1.474,-0.9375,0,0,0,0,0
1.475,-0.625,0,0,0,0,0
1.476,-0.9375,0,0,0,0,0
1.477,-1.25,0,0,0,0,0
1.478,-1.5625,0,0,0,0,0
1.479,-1.875,0,0,0,0,0
1.48,-1.875,0,0,0,0,0
1.481,-1.875,0,0,0,0,0
1.482,-1.875,0,0,0,0,0
1.483,-1.875,0,0,0,0,0
1.484,-1.5625,0,0,0,0,0
1.485,-1.25,0,0,0,0,0
1.486,-1.5625,0,0,0,0,0
1.487,-1.875,0,0,0,0,0
1.488,-2.1875,0,0,0,0,0
1.489,-2.5,0,0,0,0,0
1.49,-2.5,0,0,0,0,0
1.491,-2.5,0,0,0,0,0
1.492,-2.1875,0,0,0,0,0
1.493,-1.875,0,0,0,0,0
1.494,-1.5625,0,0,0,0,0
1.495,-1.25,0,0,0,0,0
1.496,-0.9375,0,0,0,0,0
1.497,-1.25,0,0,0,0,0
1.498,-1.25,0,0,0,0,0
1.499,-1.25,0,0,0,0,0
1.5,-0.9375,0,0,0,0,0
1.501,-0.625,0,0,0,0,0
1.502,-0.9375,0,0,0,0,0
1.503,-1.25,0,0,0,0,0
1.504,-1.5625,0,0,0,0,0
1.505,-1.875,0,0,0,0,0
1.506,-1.5625,0,0,0,0,0
1.507,-1.25,0,0,0,0,0
1.508,-1.5625,0,0,0,0,0
1.509,-1.875,0,0,0,0,0
1.51,-1.875,0,0,0,0,0
1.511,-1.875,0,0,0,0,0
1.512,-2.1875,0,0,0,0,0
1.513,-2.5,0,0,0,0,0
1.514,-1.875,0,0,0,0,0
1.515,-2.5,0,0,0,0,0
1.516,-2.1875,0,0,0,0,0
1.517,-1.875,0,0,0,0,0
1.518,-1.875,0,0,0,0,0
1.519,-1.875,0,0,0,0,0
1.52,-1.875,0,0,0,0,0
1.521,-1.875,0,0,0,0,0
1.522,-2.1875,0,0,0,0,0
1.523,-2.5,0,0,0,0,0
1.524,-2.8125,0,0,0,0,0
1.525,-2.5,0,0,0,0,0
1.526,-1.875,0,0,0,0,0
1.527,-1.25,0,0,0,0,0
1.528,-1.25,0,0,0,0,0
1.529,-1.875,0,0,0,0,0
1.53,-2.1875,0,0,0,0,0
1.531,-2.5,0,0,0,0,0
1.532,-2.5,0,0,0,0,0
1.533,-2.5,0,0,0,0,0
1.534,-2.5,0,0,0,0,0
1.535,-2.5,0,0,0,0,0
1.536,-1.5625,0,0,0,0,0
1.537,-1.875,0,0,0,0,0
1.538,-1.5625,0,0,0,0,0
1.539,-1.25,0,0,0,0,0
1.54,-1.5625,0,0,0,0,0
1.541,-1.875,0,0,0,0,0
1.542,-1.875,0,0,0,0,0
1.543,-1.875,0,0,0,0,0
1.544,-1.5625,0,0,0,0,0
1.545,-1.25,0,0,0,0,0
1.546,-0.9375,0,0,0,0,0
1.547,-0.625,0,0,0,0,0
1.548,-0.9375,0,0,0,0,0
1.549,-1.25,0,0,0,0,0
1.55,-1.5625,0,0,0,0,0
1.551,-1.25,0,0,0,0,0
1.552,-1.5625,0,0,0,0,0
1.553,-1.25,0,0,0,0,0
1.554,-1.5625,0,0,0,0,0
1.555,-1.875,0,0,0,0,0
1.556,-1.875,0,0,0,0,0
1.557,-2.5,0,0,0,0,0
1.558,-2.1875,0,0,0,0,0
1.559,-2.5,0,0,0,0,0
1.56,-2.5,0,0,0,0,0
1.561,-2.5,0,0,0,0,0
1.562,-2.8125,0,0,0,0,0
1.563,-2.5,0,0,0,0,0
1.564,-1.875,0,0,0,0,0
1.565,-1.875,0,0,0,0,0
1.566,-2.1875,0,0,0,0,0
1.567,-2.5,0,0,0,0,0
1.568,-2.1875,0,0,0,0,0
1.569,-1.875,0,0,0,0,0
1.57,-1.25,0,0,0,0,0
1.571,-1.875,0,0,0,0,0
1.572,-1.875,0,0,0,0,0
1.573,-1.875,0,0,0,0,0
1.574,-1.5625,0,0,0,0,0
1.575,-1.875,0,0,0,0,0
1.576,-2.1875,0,0,0,0,0
1.577,-2.5,0,0,0,0,0
1.578,-2.5,0,0,0,0,0
1.579,-2.5,0,0,0,0,0
1.58,-2.5,0,0,0,0,0
1.581,-2.5,0,0,0,0,0
1.582,-1.875,0,0,0,0,0
1.583,-2.5,0,0,0,0,0
1.584,-2.5,0,0,0,0,0
1.585,-2.5,0,0,0,0,0
1.586,-2.1875,0,0,0,0,0
1.587,-1.25,0,0,0,0,0
1.588,-0.9375,0,0,0,0,0
1.589,-0.625,0,0,0,0,0
1.59,-1.25,0,0,0,0,0
1.591,-1.875,0,0,0,0,0
1.592,-2.8125,0,0,0,0,0
1.593,-2.5,0,0,0,0,0
1.594,-2.1875,0,0,0,0,0
1.595,-1.875,0,0,0,0,0
1.596,-1.875,0,0,0,0,0
1.597,-1.875,0,0,0,0,0
1.598,-1.875,0,0,0,0,0
1.599,-2.5,0,0,0,0,0
1.6,-2.1875,0,0,0,0,0
1.601,-2.5,0,0,0,0,0
1.602,-3.125,0,0,0,0,0
1.603,-3.125,0,0,0,0,0
1.604,-3.125,0,0,0,0,0
1.605,-3.125,0,0,0,0,0
1.606,-3.125,0,0,0,0,0
1.607,-2.5,0,0,0,0,0
1.608,-1.5625,0,0,0,0,0
1.609,-1.25,0,0,0,0,0
1.61,-1.5625,0,0,0,0,0
1.611,-1.875,0,0,0,0,0
1.612,-1.5625,0,0,0,0,0
1.613,-1.875,0,0,0,0,0
1.614,-1.5625,0,0,0,0,0
1.615,-1.875,0,0,0,0,0
1.616,-1.875,0,0,0,0,0
1.617,-1.875,0,0,0,0,0
1.618,-2.5,0,0,0,0,0
1.619,-2.5,0,0,0,0,0
1.62,-2.1875,0,0,0,0,0
1.621,-1.875,0,0,0,0,0
1.622,-1.875,0,0,0,0,0
1.623,-1.875,0,0,0,0,0
1.624,-1.875,0,0,0,0,0
1.625,-1.875,0,0,0,0,0
1.626,-1.875,0,0,0,0,0
1.627,-1.875,0,0,0,0,0
1.628,-2.1875,0,0,0,0,0
1.629,-1.875,0,0,0,0,0
1.63,-1.5625,0,0,0,0,0
1.631,-1.875,0,0,0,0,0
1.632,-1.25,0,0,0,0,0
1.633,-1.25,0,0,0,0,0
1.634,-1.25,0,0,0,0,0
1.635,-1.25,0,0,0,0,0
1.636,-2.1875,0,0,0,0,0
1.637,-3.125,0,0,0,0,0
1.638,-3.125,0,0,0,0,0
1.639,-3.125,0,0,0,0,0
1.64,-3.125,0,0,0,0,0
1.641,-3.125,0,0,0,0,0
1.642,-2.1875,0,0,0,0,0
1.643,-1.25,0,0,0,0,0
1.644,-1.875,0,0,0,0,0
1.645,-1.25,0,0,0,0,0
1.646,-0.9375,0,0,0,0,0
1.647,-1.25,0,0,0,0,0
1.648,-1.25,0,0,0,0,0
1.649,-1.25,0,0,0,0,0
1.65,-1.25,0,0,0,0,0
1.651,-1.25,0,0,0,0,0
1.652,-1.5625,0,0,0,0,0
1.653,-1.875,0,0,0,0,0
1.654,-1.875,0,0,0,0,0
1.655,-1.875,0,0,0,0,0
1.656,-2.1875,0,0,0,0,0
1.657,-2.5,0,0,0,0,0
1.658,-2.5,0,0,0,0,0
1.659,-2.5,0,0,0,0,0
1.66,-3.125,0,0,0,0,0
1.661,-2.5,0,0,0,0,0
1.662,-2.5,0,0,0,0,0
1.663,-2.5,0,0,0,0,0
1.664,-2.5,0,0,0,0,0
1.665,-2.5,0,0,0,0,0
1.666,-2.8125,0,0,0,0,0
1.667,-3.125,0,0,0,0,0
1.668,-2.5,0,0,0,0,0
1.669,-2.5,0,0,0,0,0
1.67,-2.1875,0,0,0,0,0
1.671,-1.875,0,0,0,0,0
1.672,-2.1875,0,0,0,0,0
1.673,-1.875,0,0,0,0,0
1.674,-1.875,0,0,0,0,0
1.675,-1.875,0,0,0,0,0
1.676,-2.1875,0,0,0,0,0
1.677,-2.5,0,0,0,0,0
1.678,-2.5,0,0,0,0,0
1.679,-2.5,0,0,0,0,0
1.68,-1.875,0,0,0,0,0
1.681,-1.25,0,0,0,0,0
1.682,-1.25,0,0,0,0,0
1.683,-1.25,0,0,0,0,0
1.684,-1.25,0,0,0,0,0
1.685,-1.25,0,0,0,0,0
1.686,-1.5625,0,0,0,0,0
1.687,-1.875,0,0,0,0,0
1.688,-1.875,0,0,0,0,0
1.689,-1.875,0,0,0,0,0
1.69,-1.875,0,0,0,0,0
1.691,-1.875,0,0,0,0,0
1.692,-2.8125,0,0,0,0,0
1.693,-3.125,0,0,0,0,0
1.694,-2.5,0,0,0,0,0
1.695,-2.5,0,0,0,0,0
1.696,-2.8125,0,0,0,0,0
1.697,-3.125,0,0,0,0,0
1.698,-2.5,0,0,0,0,0
1.699,-2.5,0,0,0,0,0
1.7,-1.875,0,0,0,0,0
1.701,-1.875,0,0,0,0,0
1.702,-1.5625,0,0,0,0,0
1.703,-1.875,0,0,0,0,0
1.704,-2.8125,0,0,0,0,0
1.705,-3.125,0,0,0,0,0
1.706,-2.5,0,0,0,0,0
1.707,-3.125,0,0,0,0,0
1.708,-2.5,0,0,0,0,0
1.709,-2.5,0,0,0,0,0
1.71,-1.875,0,0,0,0,0
1.711,-1.875,0,0,0,0,0
1.712,-1.875,0,0,0,0,0
1.713,-1.875,0,0,0,0,0
1.714,-1.875,0,0,0,0,0
1.715,-1.25,0,0,0,0,0
1.716,-1.5625,0,0,0,0,0
1.717,-1.25,0,0,0,0,0
1.718,-1.25,0,0,0,0,0
1.719,-1.25,0,0,0,0,0
1.72,-0.9375,0,0,0,0,0
1.721,-0.625,0,0,0,0,0
1.722,-0.9375,0,0,0,0,0
1.723,-1.25,0,0,0,0,0
1.724,-1.5625,0,0,0,0,0
1.725,-1.25,0,0,0,0,0
1.726,-1.5625,0,0,0,0,0
1.727,-1.25,0,0,0,0,0
1.728,-1.25,0,0,0,0,0
1.729,-0.625,0,0,0,0,0
1.73,0.3125,0,0,0,0,0
1.731,0,0,0,0,0,0
1.732,0,0,0,0,0,0
1.733,0,0,0,0,0,0
1.734,0.625,0,0,0,0,0
1.735,0.625,0,0,0,0,0
1.736,0.625,0,0,0,0,0
1.737,0.625,0,0,0,0,0
1.738,0.3125,0,0,0,0,0
1.739,0,0,0,0,0,0
1.74,0,0,0,0,0,0
1.741,0,0,0,0,0,0
1.742,0,0,0,0,0,0
1.743,0,0,0,0,0,0
1.744,0,0,0,0,0,0
1.745,0,0,0,0,0,0
1.746,0.3125,0,0,0,0,0
1.747,0.625,0,0,0,0,0
1.748,0.625,0,0,0,0,0
1.749,0.625,0,0,0,0,0
1.75,0.625,0,0,0,0,0
1.751,0.625,0,0,0,0,0
1.752,0.625,0,0,0,0,0
1.753,1.25,0,0,0,0,0
1.754,1.25,0,0,0,0,0
1.755,1.25,0,0,0,0,0
1.756,1.25,0,0,0,0,0
1.757,1.25,0,0,0,0,0
1.758,1.25,0,0,0,0,0
1.759,1.25,0,0,0,0,0
1.76,0.9375,0,0,0,0,0
1.761,1.25,0,0,0,0,0
1.762,1.5625,0,0,0,0,0
1.763,1.25,0,0,0,0,0
1.764,1.25,0,0,0,0,0
1.765,1.875,0,0,0,0,0
1.766,2.1875,0,0,0,0,0
1.767,2.5,0,0,0,0,0
1.768,1.875,0,0,0,0,0
1.769,1.875,0,0,0,0,0
1.77,2.1875,0,0,0,0,0
1.771,1.875,0,0,0,0,0
1.772,2.1875,0,0,0,0,0
1.773,1.875,0,0,0,0,0
1.774,2.1875,0,0,0,0,0
1.775,2.5,0,0,0,0,0
1.776,2.1875,0,0,0,0,0
1.777,1.25,0,0,0,0,0
1.778,1.5625,0,0,0,0,0
1.779,1.25,0,0,0,0,0
1.78,0.9375,0,0,0,0,0
1.781,1.25,0,0,0,0,0
1.782,0.9375,0,0,0,0,0
1.783,0,0,0,0,0,0
1.784,-0.9375,0,0,0,0,0
1.785,-1.25,0,0,0,0,0
1.786,-1.5625,0,0,0,0,0
1.787,-1.25,0,0,0,0,0
1.788,-0.9375,0,0,0,0,0
1.789,-1.25,0,0,0,0,0
1.79,-0.625,0,0,0,0,0
1.791,-0.625,0,0,0,0,0
1.792,-0.625,0,0,0,0,0
1.793,-0.625,0,0,0,0,0
1.794,-1.25,0,0,0,0,0
1.795,-1.25,0,0,0,0,0
1.796,-0.9375,0,0,0,0,0
1.797,-0.625,0,0,0,0,0
1.798,-1.25,0,0,0,0,0
1.799,-1.25,0,0,0,0,0
1.8,-1.25,0,0,0,0,0
1.801,-0.625,0,0,0,0,0
1.802,-1.25,0,0,0,0,0
1.803,-1.25,0,0,0,0,0
1.804,-1.25,0,0,0,0,0
1.805,-0.625,0,0,0,0,0
1.806,-0.625,0,0,0,0,0
1.807,-0.625,0,0,0,0,0
1.808,-0.9375,0,0,0,0,0
1.809,-1.25,0,0,0,0,0
1.81,-0.9375,0,0,0,0,0
1.811,-0.625,0,0,0,0,0
1.812,-1.5625,0,0,0,0,0
1.813,-1.25,0,0,0,0,0
1.814,-0.9375,0,0,0,0,0
1.815,-1.875,0,0,0,0,0
1.816,-1.5625,0,0,0,0,0
1.817,-0.625,0,0,0,0,0
1.818,-1.25,0,0,0,0,0
1.819,-1.25,0,0,0,0,0
1.82,-0.9375,0,0,0,0,0
1.821,-0.625,0,0,0,0,0
1.822,-1.25,0,0,0,0,0
1.823,-1.25,0,0,0,0,0
1.824,-0.9375,0,0,0,0,0
1.825,-0.625,0,0,0,0,0
1.826,-0.9375,0,0,0,0,0
1.827,-0.625,0,0,0,0,0
1.828,-0.625,0,0,0,0,0
1.829,-0.625,0,0,0,0,0
1.83,-0.9375,0,0,0,0,0
1.831,-1.25,0,0,0,0,0
1.832,-1.5625,0,0,0,0,0
1.833,-1.875,0,0,0,0,0
1.834,-1.5625,0,0,0,0,0
1.835,-1.25,0,0,0,0,0
1.836,-0.9375,0,0,0,0,0
1.837,-1.25,0,0,0,0,0
1.838,-1.5625,0,0,0,0,0
1.839,-1.875,0,0,0,0,0
1.84,-2.1875,0,0,0,0,0
1.841,-1.875,0,0,0,0,0
1.842,-2.5,0,0,0,0,0
1.843,-3.125,0,0,0,0,0
1.844,-3.125,0,0,0,0,0
1.845,-3.125,0,0,0,0,0
1.846,-3.125,0,0,0,0,0
1.847,-3.125,0,0,0,0,0
1.848,-3.125,0,0,0,0,0
1.849,-3.125,0,0,0,0,0
1.85,-3.125,0,0,0,0,0
1.851,-3.125,0,0,0,0,0
1.852,-3.125,0,0,0,0,0
1.853,-3.125,0,0,0,0,0
1.854,-2.8125,0,0,0,0,0
1.855,-2.5,0,0,0,0,0
1.856,-2.8125,0,0,0,0,0
1.857,-3.125,0,0,0,0,0
1.858,-2.8125,0,0,0,0,0
1.859,-2.5,0,0,0,0,0
1.86,-2.8125,0,0,0,0,0
1.861,-2.5,0,0,0,0,0
1.862,-2.1875,0,0,0,0,0
1.863,-1.875,0,0,0,0,0
1.864,-2.5,0,0,0,0,0
1.865,-1.875,0,0,0,0,0
1.866,-2.1875,0,0,0,0,0
1.867,-2.5,0,0,0,0,0
1.868,-2.8125,0,0,0,0,0
1.869,-2.5,0,0,0,0,0
1.87,-2.5,0,0,0,0,0
1.871,-2.5,0,0,0,0,0
1.872,-1.875,0,0,0,0,0
1.873,-2.5,0,0,0,0,0
1.874,-2.1875,0,0,0,0,0
1.875,-1.875,0,0,0,0,0
1.876,-2.1875,0,0,0,0,0
1.877,-1.875,0,0,0,0,0
1.878,-2.5,0,0,0,0,0
1.879,-2.5,0,0,0,0,0
1.88,-1.875,0,0,0,0,0
1.881,-1.875,0,0,0,0,0
1.882,-1.875,0,0,0,0,0
1.883,-2.5,0,0,0,0,0
1.884,-2.5,0,0,0,0,0
1.885,-2.5,0,0,0,0,0
1.886,-2.8125,0,0,0,0,0
1.887,-3.125,0,0,0,0,0
1.888,-3.125,0,0,0,0,0
1.889,-2.5,0,0,0,0,0
1.89,-2.8125,0,0,0,0,0
1.891,-3.125,0,0,0,0,0
1.892,-2.8125,0,0,0,0,0
1.893,-2.5,0,0,0,0,0
1.894,-2.5,0,0,0,0,0
1.895,-2.5,0,0,0,0,0
1.896,-2.5,0,0,0,0,0
1.897,-2.5,0,0,0,0,0
1.898,-2.1875,1,0,0,0,0
1.899,-1.875,0,0,0,0,0
1.9,-1.875,0,0,0,0,0
1.901,-2.5,0,0,0,0,0
1.902,-1.5625,0,0,0,0,0
1.903,-1.25,0,0,0,0,0
1.904,-1.25,0,0,0,0,0
1.905,-1.25,0,0,0,0,0
1.906,-1.25,0,0,0,0,0
1.907,-0.625,0,0,0,0,0
1.908,0.3125,0,0,0,0,0
1.909,0,0,0,0,0,0
1.91,0.3125,0,0,0,0,0
1.911,0.625,0,0,0,0,0
1.912,1.25,0,0,0,0,0
1.913,2.5,0,0,0,0,0
1.914,2.8125,0,0,0,0,0
1.915,3.125,0,0,0,0,0
1.916,2.8125,0,0,0,0,0
1.917,3.125,0,0,0,0,0
1.918,4.0625,0,0,0,0,0
1.919,5,0,0,0,0,0
1.92,5.9375,0,0,0,0,0
1.921,7.5,0,0,0,0,0
1.922,7.5,0,0,0,0,0
1.923,8.125,0,0,0,0,0
1.924,8.4375,0,0,0,0,0
1.925,8.75,0,0,0,0,0
1.926,9.375,0,0,0,0,0
1.927,10.625,0,0,0,0,0
1.928,11.563,0,0,0,0,0
1.929,12.5,0,0,0,0,0
1.93,12.813,0,0,0,0,0
1.931,14.375,0,0,0,0,0
1.932,16.875,0,0,0,0,0
1.933,19.375,0,0,0,0,0
1.934,21.563,0,0,0,0,0
1.935,25,0,0,0,0,0
1.936,28.75,0,0,0,0,0
1.937,31.875,0,0,0,0,0
1.938,35.625,0,0,0,0,0
1.939,39.375,0,0,0,0,0
1.94,43.438,0,0,0,0,0
1.941,46.875,0,0,0,0,0
1.942,50.625,0,0,0,0,0
1.943,54.375,0,0,0,0,0
1.944,59.063,0,0,0,0,0
1.945,62.5,0,0,0,0,0
1.946,65.625,0,0,0,0,0
1.947,69.375,0,0,0,0,0
1.948,72.5,0,1,0,0,0
1.949,73.75,0,0,0,0,0
1.95,73.438,0,0,0,0,0
1.951,72.5,0,0,0,0,0
1.952,71.25,0,0,0,0,0
1.953,69.375,0,0,0,0,0
1.954,67.813,0,0,0,0,0
1.955,66.25,0,0,0,0,0
1.956,62.5,0,0,0,0,0
1.957,57.5,0,0,0,0,0
1.958,51.25,0,0,0,0,0
1.959,45,0,0,0,0,0
1.96,34.688,0,0,0,0,0
1.961,21.875,0,0,0,0,0
1.962,10.313,0,0,0,0,0
1.963,0.625,0,0,0,0,0
1.964,-8.125,0,0,0,0,0
1.965,-16.875,0,0,0,0,0
1.966,-26.25,0,0,0,0,0
1.967,-36.25,0,0,0,0,0
1.968,-47.188,0,0,0,0,0
1.969,-56.25,0,0,0,0,0
1.97,-61.875,0,0,0,0,0
1.971,-65,0,0,0,0,0
1.972,-66.875,0,0,0,0,0
1.973,-66.25,0,0,0,0,0
1.974,-64.688,0,0,0,0,0
1.975,-62.5,0,0,0,0,0
1.976,-60,0,0,0,0,0
1.977,-58.125,0,0,0,0,0
1.978,-55.938,0,0,0,0,0
1.979,-53.125,0,0,0,0,0
1.98,-50.938,0,0,0,0,0
1.981,-46.875,0,0,0,0,0
1.982,-43.438,0,0,0,0,0
1.983,-40,0,0,0,0,0
1.984,-36.563,0,0,0,0,0
1.985,-33.125,0,0,0,0,0
1.986,-30,0,0,0,0,0
1.987,-26.875,0,0,0,0,0
1.988,-23.75,0,0,0,0,0
1.989,-21.875,0,0,0,0,0
1.99,-19.063,0,0,0,0,0
1.991,-18.125,0,0,0,0,0
1.992,-16.563,0,0,0,0,0
1.993,-15.625,0,0,0,0,0
1.994,-13.75,0,0,0,0,0
1.995,-11.875,0,0,0,0,0
1.996,-10.625,0,0,0,0,0
1.997,-10,0,0,0,0,0
1.998,-8.125,0,0,0,0,0
1.999,-6.875,0,0,0,0,0
2,-5.9375,0,0,0,0,0
2.001,-5,0,0,0,0,0
2.002,-4.6875,0,0,0,0,0
2.003,-4.375,0,0,1,0,0
2.004,-3.75,0,0,0,0,0
2.005,-3.75,0,0,0,0,0
2.006,-3.125,0,0,0,0,0
2.007,-2.5,0,0,0,0,0
2.008,-2.8125,0,0,0,0,0
2.009,-3.125,0,0,0,0,0
2.01,-2.8125,0,0,0,0,0
2.011,-3.125,0,0,0,0,0
2.012,-3.125,0,0,0,0,0
2.013,-3.125,0,0,0,0,0
2.014,-2.1875,0,0,0,0,0
2.015,-2.5,0,0,0,0,0
2.016,-1.875,0,0,0,0,0
2.017,-1.875,0,0,0,0,0
2.018,-1.5625,0,0,0,0,0
2.019,-1.25,0,0,0,0,0
2.02,-0.9375,0,0,0,0,0
2.021,-0.625,0,0,0,0,0
2.022,-0.9375,0,0,0,0,0
2.023,-0.625,0,0,0,0,0
2.024,0,0,0,0,0,0
2.025,0,0,0,0,0,0
2.026,-0.625,0,0,0,0,0
2.027,-0.625,0,0,0,0,0
2.028,-0.625,0,0,0,0,0
2.029,-0.625,0,0,0,0,0
2.03,-1.25,0,0,0,0,0
2.031,-1.25,0,0,0,0,0
2.032,-0.9375,0,0,0,0,0
2.033,-1.25,0,0,0,0,0
2.034,-1.5625,0,0,0,0,0
2.035,-1.875,0,0,0,0,0
2.036,-1.5625,0,0,0,0,0
2.037,-1.25,0,0,0,0,0
2.038,-2.5,0,0,0,0,0
2.039,-1.875,0,0,0,0,0
2.04,-1.5625,0,0,0,0,0
2.041,-1.25,0,0,0,0,0
2.042,-1.25,0,0,0,0,0
2.043,-1.25,0,0,0,0,0
2.044,-1.25,0,0,0,0,0
2.045,-1.25,0,0,0,0,0
2.046,-0.9375,0,0,0,0,0
2.047,-0.625,0,0,0,0,0
2.048,-0.625,0,0,0,0,0
2.049,-0.625,0,0,0,0,0
2.05,-1.25,0,0,0,0,0
2.051,-1.25,0,0,0,0,0
2.052,-1.25,0,0,0,0,0
2.053,0,0,0,0,0,0
2.054,0,0,0,0,0,0
2.055,0,0,0,0,0,0
2.056,0.3125,0,0,0,0,0
2.057,0,0,0,0,0,0
2.058,0.9375,0,0,0,0,0
2.059,0.625,0,0,0,0,0
2.06,0,0,0,0,0,0
2.061,0,0,0,0,0,0
2.062,0.9375,0,0,0,0,0
2.063,0.625,0,0,0,0,0
2.064,0.9375,0,0,0,0,0
2.065,1.25,0,0,0,0,0
2.066,1.25,0,0,0,0,0
2.067,1.25,0,0,0,0,0
2.068,1.5625,0,0,0,0,0
2.069,1.875,0,0,0,0,0
2.07,1.875,0,0,0,0,0
2.071,1.25,0,0,0,0,0
2.072,1.5625,0,0,0,0,0
2.073,2.5,0,0,0,0,0
2.074,1.5625,0,0,0,0,0
2.075,1.25,0,0,0,0,0
2.076,1.875,0,0,0,0,0
2.077,1.875,0,0,0,0,0
2.078,1.5625,0,0,0,0,0
2.079,1.25,0,0,0,0,0
2.08,1.25,0,0,0,0,0
2.081,1.25,0,0,0,0,0
2.082,0.9375,0,0,0,0,0
2.083,0.625,0,0,0,0,0
2.084,0.3125,0,0,0,0,0
2.085,0.625,0,0,0,0,0
2.086,-0.3125,0,0,0,0,0
2.087,-0.625,0,0,0,0,0
2.088,0,0,0,0,0,0
2.089,0,0,0,0,0,0
2.09,0,0,0,0,0,0
2.091,0,0,0,0,0,0
2.092,0,0,0,0,0,0
2.093,0,0,0,0,0,0
2.094,0.3125,0,0,0,0,0
2.095,0,0,0,0,0,0
2.096,0.9375,0,0,0,0,0
2.097,1.25,0,0,0,0,0
2.098,1.25,0,0,0,0,0
2.099,1.25,0,0,0,0,0
2.1,0.3125,0,0,0,0,0
2.101,0.625,0,0,0,0,0
2.102,0.9375,0,0,0,0,0
2.103,1.25,0,0,0,0,0
2.104,0.9375,0,0,0,0,0
2.105,0.625,0,0,0,0,0
2.106,1.5625,0,0,0,0,0
2.107,1.875,0,0,0,0,0
2.108,2.1875,0,0,0,0,0
2.109,2.5,0,0,0,0,0
2.11,2.1875,0,0,0,0,0
2.111,2.5,0,0,0,0,0
2.112,1.5625,0,0,0,0,0
2.113,1.25,0,0,0,0,0
2.114,2.1875,0,0,0,0,0
2.115,1.875,0,0,0,0,0
2.116,1.5625,0,0,0,0,0
2.117,1.25,0,0,0,0,0
2.118,1.875,0,0,0,0,0
2.119,1.875,0,0,0,0,0
2.12,1.875,0,0,0,0,0
2.121,1.875,0,0,0,0,0
2.122,2.1875,0,0,0,0,0
2.123,1.875,0,0,0,0,0
2.124,2.5,0,0,0,0,0
2.125,2.5,0,0,0,0,0
2.126,2.5,0,0,0,0,0
2.127,2.5,0,0,0,0,0
2.128,2.1875,0,0,0,0,0
2.129,1.875,0,0,0,0,0
2.13,2.1875,0,0,0,0,0
2.131,2.5,0,0,0,0,0
2.132,2.1875,0,0,0,0,0
2.133,2.5,0,0,0,0,0
2.134,2.5,0,0,0,0,0
2.135,2.5,0,0,0,0,0
2.136,2.5,0,0,0,0,0
2.137,2.5,0,0,0,0,0
2.138,3.125,0,0,0,0,0
2.139,3.125,0,0,0,0,0
2.14,2.1875,0,0,0,0,0
2.141,2.5,0,0,0,0,0
2.142,2.1875,0,0,0,0,0
2.143,1.875,0,0,0,0,0
2.144,2.1875,0,0,0,0,0
2.145,2.5,0,0,0,0,0
2.146,3.125,0,0,0,0,0
2.147,3.75,0,0,0,0,0
2.148,3.125,0,0,0,0,0
2.149,3.125,0,0,0,0,0
2.15,3.4375,0,0,0,0,0
2.151,3.75,0,0,0,0,0
2.152,3.75,0,0,0,0,0
2.153,3.75,0,0,0,0,0
2.154,3.75,0,0,0,0,0
2.155,3.75,0,0,0,0,0
2.156,3.125,0,0,0,0,0
2.157,3.125,0,0,0,0,0
2.158,3.4375,0,0,0,0,0
2.159,3.75,0,0,0,0,0
2.16,4.0625,0,0,0,0,0
2.161,4.375,0,0,0,0,0
2.162,4.375,0,0,0,0,0
2.163,4.375,0,0,0,0,0
2.164,4.375,0,0,0,0,0
2.165,5,0,0,0,0,0
2.166,5,0,0,0,0,0
2.167,5.625,0,0,0,0,0
2.168,5.625,0,0,0,0,0
2.169,5.625,0,0,0,0,0
2.17,5.3125,0,0,0,0,0
2.171,5.625,0,0,0,0,0
2.172,6.25,0,0,0,0,0
2.173,6.25,0,0,0,0,0
2.174,6.875,0,0,0,0,0
2.175,6.875,0,0,0,0,0
2.176,6.875,0,0,0,0,0
2.177,6.875,0,0,0,0,0
2.178,6.875,0,0,0,0,0
2.179,6.875,0,0,0,0,0
2.18,6.875,0,0,0,0,0
2.181,7.5,0,0,0,0,0
2.182,6.5625,0,0,0,0,0
2.183,6.875,0,0,0,0,0
2.184,6.5625,0,0,0,0,0
2.185,6.875,0,0,0,0,0
2.186,6.875,0,0,0,0,0
2.187,6.875,0,0,0,0,0
2.188,7.1875,0,0,0,0,0
2.189,8.125,0,0,0,0,0
2.19,8.125,0,0,0,0,0
2.191,8.125,0,0,0,0,0
2.192,8.125,0,0,0,0,0
2.193,8.125,0,0,0,0,0
2.194,9.0625,0,0,0,0,0
2.195,9.375,0,0,0,0,0
2.196,8.75,0,0,0,0,0
2.197,8.75,0,0,0,0,0
2.198,9.0625,0,0,0,0,0
2.199,9.375,0,0,0,0,0
2.2,9.375,0,0,0,0,0
2.201,10,0,0,0,0,0
2.202,9.375,0,0,0,0,0
2.203,10,0,0,0,0,0
2.204,10,0,0,0,0,0
2.205,10,0,0,0,0,0
2.206,10,0,0,0,0,0
2.207,10.625,0,0,0,0,0
2.208,10.625,0,0,0,0,0
2.209,10.625,0,0,0,0,0
2.21,11.25,0,0,0,0,0
2.211,11.25,0,0,0,0,0
2.212,11.25,0,0,0,0,0
2.213,11.25,0,0,0,0,0
2.214,11.25,0,0,0,0,0
2.215,11.25,0,0,0,0,0
2.216,11.875,0,0,0,0,0
2.217,11.875,0,0,0,0,0
2.218,12.188,0,0,0,0,0
2.219,12.5,0,0,0,0,0
2.22,12.5,0,0,0,0,0
2.221,13.125,0,0,0,0,0
2.222,13.125,0,0,0,0,0
2.223,13.125,0,0,0,0,0
2.224,13.75,0,0,0,0,0
2.225,13.75,0,0,0,0,0
2.226,12.813,0,0,0,0,0
2.227,13.125,0,0,0,0,0
2.228,13.125,0,0,0,0,0
2.229,13.125,0,0,0,0,0
2.23,12.813,0,0,0,0,0
2.231,12.5,0,0,0,0,0
2.232,12.813,0,0,0,0,0
2.233,13.125,0,0,0,0,0
2.234,13.75,0,0,0,0,0
2.235,13.75,0,0,0,0,0
2.236,13.125,0,0,0,0,0
2.237,13.125,0,0,0,0,0
2.238,13.438,0,0,0,0,0
2.239,13.125,0,0,0,0,0
2.24,13.125,0,0,0,0,0
2.241,13.125,0,0,0,0,0
2.242,12.813,0,0,0,0,0
2.243,13.125,0,0,0,0,0
2.244,13.438,0,0,0,0,0
2.245,13.75,0,0,0,0,0
2.246,14.375,0,0,0,0,0
2.247,15,0,0,0,0,0
2.248,14.688,0,0,0,0,0
2.249,14.375,0,0,0,0,0
2.25,15,0,0,0,0,0
2.251,15,0,0,0,1,0
2.252,15,0,0,0,0,0
2.253,15,0,0,0,0,0
2.254,15,0,0,0,0,0
2.255,15,0,0,0,0,0
2.256,15.313,0,0,0,0,0
2.257,15,0,0,0,0,0
2.258,14.688,0,0,0,0,0
2.259,15,0,0,0,0,0
2.26,14.688,0,0,0,0,0
2.261,14.375,0,0,0,0,0
2.262,14.375,0,0,0,0,0
2.263,14.375,0,0,0,0,0
2.264,14.063,0,0,0,0,0
2.265,14.375,0,0,0,0,0
2.266,14.063,0,0,0,0,0
2.267,14.375,0,0,0,0,0
2.268,14.063,0,0,0,0,0
2.269,13.75,0,0,0,0,0
2.27,13.75,0,0,0,0,0
2.271,13.75,0,0,0,0,0
2.272,14.063,0,0,0,0,0
2.273,13.75,0,0,0,0,0
2.274,14.063,0,0,0,0,0
2.275,13.75,0,0,0,0,0
2.276,13.75,0,0,0,0,0
2.277,13.75,0,0,0,0,0
2.278,13.438,0,0,0,0,0
2.279,12.5,0,0,0,0,0
2.28,12.5,0,0,0,0,0
2.281,12.5,0,0,0,0,0
2.282,12.813,0,0,0,0,0
2.283,13.125,0,0,0,0,0
2.284,12.188,0,0,0,0,0
2.285,11.25,0,0,0,0,0
2.286,10.938,0,0,0,0,0
2.287,11.25,0,0,0,0,0
2.288,10.625,0,0,0,0,0
2.289,10.625,0,0,0,0,0
2.29,10.625,0,0,0,0,0
2.291,10.625,0,0,0,0,0
2.292,10.313,0,0,0,0,0
2.293,10.625,0,0,0,0,0
2.294,10.313,0,0,0,0,0
2.295,10.625,0,0,0,0,0
2.296,10.313,0,0,0,0,0
2.297,9.375,0,0,0,0,0
2.298,9.375,0,0,0,0,0
2.299,9.375,0,0,0,0,0
2.3,10,0,0,0,0,0
2.301,10,0,0,0,0,0
2.302,9.6875,0,0,0,0,0
2.303,9.375,0,0,0,0,0
2.304,8.4375,0,0,0,0,0
2.305,8.125,0,0,0,0,0
2.306,7.8125,0,0,0,0,0
2.307,8.125,0,0,0,0,0
2.308,8.125,0,0,0,0,0
2.309,8.125,0,0,0,0,0
2.31,7.8125,0,0,0,0,0
2.311,7.5,0,0,0,0,0
2.312,7.8125,0,0,0,0,0
2.313,7.5,0,0,0,0,0
2.314,7.1875,0,0,0,0,0
2.315,6.875,0,0,0,0,0
2.316,6.875,0,0,0,0,0
2.317,6.875,0,0,0,0,0
2.318,6.875,0,0,0,0,0
2.319,6.25,0,0,0,0,0
2.32,5.9375,0,0,0,0,0
2.321,6.25,0,0,0,0,0
2.322,6.25,0,0,0,0,0
2.323,6.25,0,0,0,0,0
2.324,6.25,0,0,0,0,0
2.325,5.625,0,0,0,0,0
2.326,5.625,0,0,0,0,0
2.327,5.625,0,0,0,0,0
2.328,5.3125,0,0,0,0,0
2.329,5.625,0,0,0,0,0
2.33,5.3125,0,0,0,0,0
2.331,5,0,0,0,0,0
2.332,5.3125,0,0,0,0,0
2.333,5.625,0,0,0,0,0
2.334,5.9375,0,0,0,0,0
2.335,5.625,0,0,0,0,0
2.336,4.6875,0,0,0,0,0
2.337,4.375,0,0,0,0,0
2.338,5.3125,0,0,0,0,0
2.339,5,0,0,0,0,0
2.34,4.6875,0,0,0,0,0
2.341,5.625,0,0,0,0,0
2.342,4.375,0,0,0,0,0
2.343,3.75,0,0,0,0,0
2.344,3.75,0,0,0,0,0
2.345,3.75,0,0,0,0,0
2.346,3.75,0,0,0,0,0
2.347,3.75,0,0,0,0,0
2.348,3.4375,0,0,0,0,0
2.349,3.125,0,0,0,0,0
2.35,3.4375,0,0,0,0,0
2.351,3.75,0,0,0,0,0
2.352,3.125,0,0,0,0,0
2.353,3.125,0,0,0,0,0
2.354,2.5,0,0,0,0,0
2.355,2.5,0,0,0,0,0
2.356,2.5,0,0,0,0,0
2.357,2.5,0,0,0,0,0
2.358,2.1875,0,0,0,0,0
2.359,1.875,0,0,0,0,0
2.36,1.875,0,0,0,0,0
2.361,1.875,0,0,0,0,0
2.362,1.5625,0,0,0,0,0
2.363,1.25,0,0,0,0,0
2.364,1.25,0,0,0,0,0
2.365,1.25,0,0,0,0,0
2.366,1.25,0,0,0,0,0
2.367,1.875,0,0,0,0,0
2.368,1.5625,0,0,0,0,0
2.369,1.25,0,0,0,0,0
2.37,1.5625,0,0,0,0,0
2.371,1.875,0,0,0,0,0
2.372,1.5625,0,0,0,0,0
2.373,1.25,0,0,0,0,0
2.374,1.5625,0,0,0,0,0
2.375,1.25,0,0,0,0,1
2.376,1.25,0,0,0,0,0
2.377,1.25,0,0,0,0,0
2.378,1.25,0,0,0,0,0
2.379,1.25,0,0,0,0,0
2.38,0.3125,0,0,0,0,0
2.381,0.625,0,0,0,0,0
2.382,0.3125,0,0,0,0,0
2.383,0.625,0,0,0,0,0
2.384,0.625,0,0,0,0,0
2.385,0.625,0,0,0,0,0
2.386,0.9375,0,0,0,0,0
2.387,0.625,0,0,0,0,0
2.388,0.9375,0,0,0,0,0
2.389,1.25,0,0,0,0,0
2.39,1.25,0,0,0,0,0
2.391,1.875,0,0,0,0,0
2.392,1.25,0,0,0,0,0
2.393,1.25,0,0,0,0,0
2.394,1.25,0,0,0,0,0
2.395,1.25,0,0,0,0,0
2.396,1.25,0,0,0,0,0
2.397,1.25,0,0,0,0,0
2.398,1.25,0,0,0,0,0
2.399,1.25,0,0,0,0,0
2.4,0,0,0,0,0,0
2.401,0,0,0,0,0,0
2.402,0.625,0,0,0,0,0
2.403,1.25,0,0,0,0,0
2.404,0.625,0,0,0,0,0
2.405,1.25,0,0,0,0,0
2.406,0.9375,0,0,0,0,0
2.407,1.25,0,0,0,0,0
2.408,0.9375,0,0,0,0,0
2.409,0.625,0,0,0,0,0
2.41,1.25,0,0,0,0,0
2.411,1.25,0,0,0,0,0
2.412,1.5625,0,0,0,0,0
2.413,1.25,0,0,0,0,0
2.414,1.5625,0,0,0,0,0
2.415,0.625,0,0,0,0,0
2.416,0.9375,0,0,0,0,0
2.417,0.625,0,0,0,0,0
2.418,0.625,0,0,0,0,0
2.419,0.625,0,0,0,0,0
2.42,0.3125,0,0,0,0,0
2.421,0.625,0,0,0,0,0
2.422,0.625,0,0,0,0,0
2.423,0.625,0,0,0,0,0
2.424,0.3125,0,0,0,0,0
2.425,0,0,0,0,0,0
2.426,0,0,0,0,0,0
2.427,0.625,0,0,0,0,0
2.428,0.3125,0,0,0,0,0
2.429,0.625,0,0,0,0,0
2.43,0.3125,0,0,0,0,0
2.431,0,0,0,0,0,0
2.432,0,0,0,0,0,0
2.433,0,0,0,0,0,0
2.434,0,0,0,0,0,0
2.435,0,0,0,0,0,0
2.436,-0.3125,0,0,0,0,0
2.437,-0.625,0,0,0,0,0
2.438,0.3125,0,0,0,0,0
2.439,0.625,0,0,0,0,0
2.44,0,0,0,0,0,0
2.441,0,0,0,0,0,0
2.442,0.3125,0,0,0,0,0
2.443,0.625,0,0,0,0,0
2.444,0.3125,0,0,0,0,0
2.445,0,0,0,0,0,0
2.446,0,0,0,0,0,0
2.447,0.625,0,0,0,0,0
2.448,0,0,0,0,0,0
2.449,0,0,0,0,0,0
2.45,0.3125,0,0,0,0,0
2.451,0.625,0,0,0,0,0
2.452,0.625,0,0,0,0,0
2.453,0.625,0,0,0,0,0
2.454,0.3125,0,0,0,0,0
2.455,0,0,0,0,0,0
2.456,0.625,0,0,0,0,0
2.457,0.625,0,0,0,0,0
2.458,0.9375,0,0,0,0,0
2.459,0.625,0,0,0,0,0
2.46,0.625,0,0,0,0,0
2.461,0.625,0,0,0,0,0
2.462,0.3125,0,0,0,0,0
2.463,0,0,0,0,0,0
2.464,-0.3125,0,0,0,0,0
2.465,-0.625,0,0,0,0,0
2.466,-0.3125,0,0,0,0,0
2.467,-0.625,0,0,0,0,0
2.468,0,0,0,0,0,0
2.469,0,0,0,0,0,0
2.47,-0.625,0,0,0,0,0
2.471,-0.625,0,0,0,0,0
2.472,-0.625,0,0,0,0,0
2.473,-0.625,0,0,0,0,0
2.474,-0.9375,0,0,0,0,0
2.475,-1.25,0,0,0,0,0
2.476,-0.3125,0,0,0,0,0
2.477,0,0,0,0,0,0
2.478,-0.625,0,0,0,0,0
2.479,0,0,0,0,0,0
2.48,-0.9375,0,0,0,0,0
2.481,-0.625,0,0,0,0,0
2.482,-0.9375,0,0,0,0,0
2.483,-1.25,0,0,0,0,0
2.484,-0.9375,0,0,0,0,0
2.485,-0.625,0,0,0,0,0
2.486,-0.9375,0,0,0,0,0
2.487,-1.25,0,0,0,0,0
2.488,-1.5625,0,0,0,0,0
2.489,-1.25,0,0,0,0,0
2.49,-1.25,0,0,0,0,0
2.491,-1.25,0,0,0,0,0
2.492,-1.25,0,0,0,0,0
2.493,-1.25,0,0,0,0,0
2.494,-0.9375,0,0,0,0,0
2.495,-1.25,0,0,0,0,0
2.496,-0.9375,0,0,0,0,0
2.497,-1.25,0,0,0,0,0
2.498,-0.9375,0,0,0,0,0
2.499,-0.625,0,0,0,0,0
2.5,-0.9375,0,0,0,0,0
2.501,-0.625,0,0,0,0,0
2.502,-0.3125,0,0,0,0,0
2.503,-0.625,0,0,0,0,0
2.504,-0.625,0,0,0,0,0
2.505,-0.625,0,0,0,0,0
2.506,-0.625,0,0,0,0,0
2.507,-0.625,0,0,0,0,0
2.508,-0.625,0,0,0,0,0
2.509,-0.625,0,0,0,0,0
2.51,-0.9375,0,0,0,0,0
2.511,-1.25,0,0,0,0,0
2.512,-1.25,0,0,0,0,0
2.513,-1.875,0,0,0,0,0
2.514,-1.25,0,0,0,0,0
2.515,-1.25,0,0,0,0,0
2.516,-1.875,0,0,0,0,0
2.517,-1.875,0,0,0,0,0
2.518,-1.875,0,0,0,0,0
2.519,-1.875,0,0,0,0,0
2.52,-1.875,0,0,0,0,0
2.521,-1.875,0,0,0,0,0
2.522,-2.1875,0,0,0,0,0
2.523,-2.5,0,0,0,0,0
2.524,-2.5,0,0,0,0,0
2.525,-2.5,0,0,0,0,0
2.526,-1.875,0,0,0,0,0
2.527,-1.25,0,0,0,0,0
2.528,-1.875,0,0,0,0,0
2.529,-1.875,0,0,0,0,0
2.53,-1.5625,0,0,0,0,0
2.531,-1.25,0,0,0,0,0
2.532,-1.875,0,0,0,0,0
2.533,-1.875,0,0,0,0,0
2.534,-2.1875,0,0,0,0,0
2.535,-2.5,0,0,0,0,0
2.536,-2.5,0,0,0,0,0
2.537,-2.5,0,0,0,0,0
2.538,-2.8125,0,0,0,0,0
2.539,-3.125,0,0,0,0,0
2.54,-2.8125,0,0,0,0,0
2.541,-2.5,0,0,0,0,0
2.542,-2.1875,0,0,0,0,0
2.543,-1.875,0,0,0,0,0
2.544,-1.875,0,0,0,0,0
2.545,-1.875,0,0,0,0,0
2.546,-1.875,0,0,0,0,0
2.547,-1.875,0,0,0,0,0
2.548,-1.875,0,0,0,0,0
2.549,-1.875,0,0,0,0,0
2.55,-1.875,0,0,0,0,0
2.551,-1.875,0,0,0,0,0
2.552,-1.875,0,0,0,0,0
2.553,-1.875,0,0,0,0,0
2.554,-1.875,0,0,0,0,0
2.555,-1.875,0,0,0,0,0
2.556,-1.875,0,0,0,0,0
2.557,-1.875,0,0,0,0,0
2.558,-2.1875,0,0,0,0,0
2.559,-2.5,0,0,0,0,0
2.56,-1.875,0,0,0,0,0
2.561,-1.875,0,0,0,0,0
2.562,-2.5,0,0,0,0,0
2.563,-3.125,0,0,0,0,0
2.564,-2.8125,0,0,0,0,0
2.565,-2.5,0,0,0,0,0
2.566,-2.5,0,0,0,0,0
2.567,-2.5,0,0,0,0,0
2.568,-2.5,0,0,0,0,0
2.569,-2.5,0,0,0,0,0
2.57,-2.5,0,0,0,0,0
2.571,-2.5,0,0,0,0,0
2.572,-2.5,0,0,0,0,0
2.573,-2.5,0,0,0,0,0
2.574,-2.5,0,0,0,0,0
2.575,-2.5,0,0,0,0,0
2.576,-2.5,0,0,0,0,0
2.577,-2.5,0,0,0,0,0
2.578,-1.5625,0,0,0,0,0
2.579,-1.875,0,0,0,0,0
2.58,-2.1875,0,0,0,0,0
2.581,-2.5,0,0,0,0,0
2.582,-2.1875,0,0,0,0,0
2.583,-1.875,0,0,0,0,0
2.584,-1.875,0,0,0,0,0
2.585,-1.875,0,0,0,0,0
2.586,-1.875,0,0,0,0,0
2.587,-1.875,0,0,0,0,0
2.588,-2.1875,0,0,0,0,0
2.589,-1.875,0,0,0,0,0
2.59,-2.1875,0,0,0,0,0
2.591,-2.5,0,0,0,0,0
2.592,-2.1875,0,0,0,0,0
2.593,-2.5,0,0,0,0,0
2.594,-2.5,0,0,0,0,0
2.595,-2.5,0,0,0,0,0
2.596,-2.5,0,0,0,0,0
2.597,-2.5,0,0,0,0,0
2.598,-2.5,0,0,0,0,0
2.599,-2.5,0,0,0,0,0
2.6,-1.5625,0,0,0,0,0
2.601,-1.875,0,0,0,0,0
2.602,-1.875,0,0,0,0,0
2.603,-1.875,0,0,0,0,0
2.604,-1.875,0,0,0,0,0
2.605,-1.875,0,0,0,0,0
2.606,-2.1875,0,0,0,0,0
2.607,-2.5,0,0,0,0,0
2.608,-2.5,0,0,0,0,0
2.609,-2.5,0,0,0,0,0
2.61,-2.8125,0,0,0,0,0
2.611,-3.125,0,0,0,0,0
2.612,-3.125,0,0,0,0,0
2.613,-3.125,0,0,0,0,0
2.614,-3.4375,0,0,0,0,0
2.615,-3.125,0,0,0,0,0
2.616,-3.4375,0,0,0,0,0
2.617,-3.125,0,0,0,0,0
2.618,-3.4375,0,0,0,0,0
2.619,-3.75,0,0,0,0,0
2.62,-3.125,0,0,0,0,0
2.621,-3.125,0,0,0,0,0
2.622,-3.125,0,0,0,0,0
2.623,-3.75,0,0,0,0,0
2.624,-3.75,0,0,0,0,0
2.625,-3.75,0,0,0,0,0
2.626,-3.75,0,0,0,0,0
2.627,-3.125,0,0,0,0,0
2.628,-2.5,0,0,0,0,0
2.629,-2.5,0,0,0,0,0
2.63,-2.8125,0,0,0,0,0
2.631,-3.125,0,0,0,0,0
2.632,-3.125,0,0,0,0,0
2.633,-3.125,0,0,0,0,0
2.634,-2.1875,0,0,0,0,0
2.635,-2.5,0,0,0,0,0
2.636,-2.5,0,0,0,0,0
2.637,-2.5,0,0,0,0,0
2.638,-2.5,0,0,0,0,0
2.639,-3.125,0,0,0,0,0
2.64,-3.125,0,0,0,0,0
2.641,-3.125,0,0,0,0,0
2.642,-3.125,0,0,0,0,0
2.643,-3.125,0,0,0,0,0
2.644,-3.75,0,0,0,0,0
2.645,-4.375,0,0,0,0,0
2.646,-3.4375,0,0,0,0,0
2.647,-3.75,0,0,0,0,0
2.648,-3.4375,0,0,0,0,0
2.649,-3.125,0,0,0,0,0
2.65,-3.4375,0,0,0,0,0
2.651,-3.125,0,0,0,0,0
2.652,-2.8125,0,0,0,0,0
2.653,-2.5,0,0,0,0,0
2.654,-3.125,0,0,0,0,0
2.655,-2.5,0,0,0,0,0
2.656,-3.4375,0,0,0,0,0
2.657,-3.75,0,0,0,0,0
2.658,-3.125,0,0,0,0,0
2.659,-3.125,0,0,0,0,0
2.66,-2.8125,0,0,0,0,0
2.661,-1.875,0,0,0,0,0
2.662,-1.5625,0,0,0,0,0
2.663,-1.875,0,0,0,0,0
2.664,-2.1875,0,0,0,0,0
2.665,-1.875,0,0,0,0,0
2.666,-1.5625,0,0,0,0,0
2.667,-1.875,0,0,0,0,0
2.668,-1.875,0,0,0,0,0
2.669,-1.25,0,0,0,0,0
2.67,-1.875,0,0,0,0,0
2.671,-1.875,0,0,0,0,0
2.672,-1.5625,0,0,0,0,0
2.673,-1.25,0,0,0,0,0
2.674,-1.25,0,0,0,0,0
2.675,-1.25,0,0,0,0,0
2.676,-1.875,0,0,0,0,0
2.677,-2.5,0,0,0,0,0
2.678,-2.1875,0,0,0,0,0
2.679,-3.125,0,0,0,0,0
2.68,-2.5,0,0,0,0,0
2.681,-1.875,0,0,0,0,0
2.682,-1.5625,0,0,0,0,0
2.683,-1.875,0,0,0,0,0
2.684,-1.875,0,0,0,0,0
2.685,-2.5,0,0,0,0,0
2.686,-2.1875,0,0,0,0,0
2.687,-1.875,0,0,0,0,0
2.688,-1.875,0,0,0,0,0
2.689,-1.875,0,0,0,0,0
2.69,-2.8125,0,0,0,0,0
2.691,-2.5,0,0,0,0,0
2.692,-2.8125,0,0,0,0,0
2.693,-3.125,0,0,0,0,0
2.694,-2.5,0,0,0,0,0
2.695,-2.5,0,0,0,0,0
2.696,-2.1875,0,0,0,0,0
2.697,-2.5,0,0,0,0,0
2.698,-3.125,0,0,0,0,0
2.699,-3.125,0,0,0,0,0
2.7,-2.5,0,0,0,0,0
2.701,-1.875,0,0,0,0,0
2.702,-1.5625,0,0,0,0,0
2.703,-1.25,0,0,0,0,0
2.704,-2.1875,0,0,0,0,0
2.705,-1.875,0,0,0,0,0
2.706,-1.5625,0,0,0,0,0
2.707,-1.25,0,0,0,0,0
2.708,-0.625,0,0,0,0,0
2.709,-0.625,0,0,0,0,0
2.71,-1.25,0,0,0,0,0
2.711,-1.875,0,0,0,0,0
2.712,-1.875,0,0,0,0,0
2.713,-1.875,0,0,0,0,0
2.714,-1.875,0,0,0,0,0
2.715,-1.875,0,0,0,0,0
2.716,-1.875,0,0,0,0,0
2.717,-1.875,0,0,0,0,0
2.718,-1.5625,0,0,0,0,0
2.719,-1.875,0,0,0,0,0
2.72,-2.5,0,0,0,0,0
2.721,-2.5,0,0,0,0,0
2.722,-2.5,0,0,0,0,0
2.723,-2.5,0,0,0,0,0
2.724,-3.125,0,0,0,0,0
2.725,-3.125,0,0,0,0,0
2.726,-2.8125,0,0,0,0,0
2.727,-2.5,0,0,0,0,0
2.728,-2.1875,0,0,0,0,0
2.729,-1.875,0,0,0,0,0
2.73,-2.1875,0,0,0,0,0
2.731,-1.875,0,0,0,0,0
2.732,-1.875,0,0,0,0,0
2.733,-2.5,0,0,0,0,0
2.734,-2.1875,0,0,0,0,0
2.735,-2.5,0,0,0,0,0
2.736,-1.5625,0,0,0,0,0
2.737,-1.25,0,0,0,0,0
2.738,-1.5625,0,0,0,0,0
2.739,-1.25,0,0,0,0,0
2.74,-1.25,0,0,0,0,0
2.741,-1.25,0,0,0,0,0
2.742,-1.5625,0,0,0,0,0
2.743,-1.875,0,0,0,0,0
2.744,-1.5625,0,0,0,0,0
2.745,-1.25,0,0,0,0,0
2.746,-1.25,0,0,0,0,0
2.747,-1.25,0,0,0,0,0
2.748,-1.5625,0,0,0,0,0
2.749,-1.875,0,0,0,0,0
2.75,-1.875,0,0,0,0,0
2.751,-2.5,0,0,0,0,0
2.752,-1.5625,0,0,0,0,0
2.753,-1.25,0,0,0,0,0
2.754,-0.9375,0,0,0,0,0
2.755,-0.625,0,0,0,0,0
2.756,-0.625,0,0,0,0,0
2.757,-0.625,0,0,0,0,0
2.758,-0.625,0,0,0,0,0
2.759,0,0,0,0,0,0
2.76,0,0,0,0,0,0
2.761,0,0,0,0,0,0
2.762,-0.3125,0,0,0,0,0
2.763,-1.25,0,0,0,0,0
2.764,-1.25,0,0,0,0,0
2.765,-1.25,0,0,0,0,0
2.766,-1.5625,0,0,0,0,0
2.767,-1.875,0,0,0,0,0
2.768,-1.5625,0,0,0,0,0
2.769,-1.25,0,0,0,0,0
2.77,-1.875,0,0,0,0,0
2.771,-2.5,0,0,0,0,0
2.772,-2.5,0,0,0,0,0
2.773,-2.5,0,0,0,0,0
2.774,-2.1875,0,0,0,0,0
2.775,-1.875,0,0,0,0,0
2.776,-1.875,0,0,0,0,0
2.777,-1.875,0,0,0,0,0
2.778,-1.875,0,0,0,0,0
2.779,-1.875,0,0,0,0,0
2.78,-1.5625,0,0,0,0,0
2.781,-1.25,0,0,0,0,0
2.782,-0.9375,0,0,0,0,0
2.783,-1.25,0,0,0,0,0
2.784,-1.5625,0,0,0,0,0
2.785,-1.25,0,0,0,0,0
2.786,-1.5625,0,0,0,0,0
2.787,-1.875,0,0,0,0,0
2.788,-2.1875,0,0,0,0,0
2.789,-1.875,0,0,0,0,0
2.79,-1.875,0,0,0,0,0
2.791,-1.875,0,0,0,0,0
2.792,-2.8125,0,0,0,0,0
2.793,-2.5,0,0,0,0,0
2.794,-1.875,0,0,0,0,0
2.795,-1.875,0,0,0,0,0
2.796,-1.875,0,0,0,0,0
2.797,-1.25,0,0,0,0,0
2.798,-2.1875,0,0,0,0,0
2.799,-1.875,0,0,0,0,0
2.8,-1.5625,0,0,0,0,0
2.801,-1.25,0,0,0,0,0
2.802,-1.875,0,0,0,0,0
2.803,-1.875,0,0,0,0,0
2.804,-2.1875,0,0,0,0,0
2.805,-2.5,0,0,0,0,0
2.806,-1.25,0,0,0,0,0
2.807,-0.625,0,0,0,0,0
2.808,0,0,0,0,0,0
2.809,0,0,0,0,0,0
2.81,-0.3125,0,0,0,0,0
2.811,-0.625,0,0,0,0,0
2.812,-0.625,0,0,0,0,0
2.813,-0.625,0,0,0,0,0
2.814,-0.625,0,0,0,0,0
2.815,-0.625,0,0,0,0,0
2.816,0,0,0,0,0,0
2.817,-0.625,0,0,0,0,0
2.818,-0.625,0,0,0,0,0
2.819,-0.625,0,0,0,0,0
2.82,0,0,0,0,0,0
2.821,0.625,0,0,0,0,0
2.822,0.3125,0,0,0,0,0
2.823,0.625,0,0,0,0,0
2.824,0.3125,0,0,0,0,0
2.825,0.625,0,0,0,0,0
2.826,0.625,0,0,0,0,0
2.827,0.625,0,0,0,0,0
2.828,0.625,0,0,0,0,0
2.829,0.625,0,0,0,0,0
2.83,0.9375,0,0,0,0,0
2.831,1.25,0,0,0,0,0
2.832,1.5625,0,0,0,0,0
2.833,1.875,0,0,0,0,0
2.834,1.875,0,0,0,0,0
2.835,1.875,0,0,0,0,0
2.836,2.1875,0,0,0,0,0
2.837,2.5,0,0,0,0,0
2.838,2.5,0,0,0,0,0
2.839,2.5,0,0,0,0,0
2.84,2.5,0,0,0,0,0
2.841,2.5,0,0,0,0,0
2.842,1.875,0,0,0,0,0
2.843,1.25,0,0,0,0,0
2.844,2.1875,0,0,0,0,0
2.845,2.5,0,0,0,0,0
2.846,2.5,0,0,0,0,0
2.847,2.5,0,0,0,0,0
2.848,2.1875,0,0,0,0,0
2.849,1.875,0,0,0,0,0
2.85,2.1875,0,0,0,0,0
2.851,1.875,0,0,0,0,0
2.852,1.25,0,0,0,0,0
2.853,1.25,0,0,0,0,0
2.854,1.5625,0,0,0,0,0
2.855,1.875,0,0,0,0,0
2.856,2.1875,0,0,0,0,0
2.857,1.875,0,0,0,0,0
2.858,2.1875,0,0,0,0,0
2.859,1.875,0,0,0,0,0
2.86,1.875,0,0,0,0,0
2.861,2.5,0,0,0,0,0
2.862,2.8125,0,0,0,0,0
2.863,3.125,0,0,0,0,0
2.864,2.8125,0,0,0,0,0
2.865,3.125,0,0,0,0,0
2.866,3.125,0,0,0,0,0
2.867,3.125,0,0,0,0,0
2.868,2.1875,0,0,0,0,0
2.869,1.875,0,0,0,0,0
2.87,0.9375,0,0,0,0,0
2.871,0.625,0,0,0,0,0
2.872,1.25,0,0,0,0,0
2.873,1.25,0,0,0,0,0
2.874,1.25,0,0,0,0,0
2.875,1.25,0,0,0,0,0
2.876,1.25,0,0,0,0,0
2.877,0.625,0,0,0,0,0
2.878,0.625,0,0,0,0,0
2.879,0.625,0,0,0,0,0
2.88,0,0,0,0,0,0
2.881,0.625,0,0,0,0,0
2.882,0.3125,0,0,0,0,0
2.883,0,0,0,0,0,0
2.884,0.3125,0,0,0,0,0
2.885,0,0,0,0,0,0
2.886,-0.3125,0,0,0,0,0
2.887,-0.625,0,0,0,0,0
2.888,0,0,0,0,0,0
2.889,0,0,0,0,0,0
2.89,-0.3125,0,0,0,0,0
2.891,-0.625,0,0,0,0,0
2.892,0.625,0,0,0,0,0
2.893,0.625,0,0,0,0,0
2.894,0.3125,0,0,0,0,0
2.895,0,0,0,0,0,0
2.896,0,0,0,0,0,0
2.897,-0.625,0,0,0,0,0
2.898,-0.625,0,0,0,0,0
2.899,-0.625,0,0,0,0,0
2.9,-0.3125,0,0,0,0,0
2.901,0,0,0,0,0,0
2.902,0,0,0,0,0,0
2.903,-0.625,0,0,0,0,0
2.904,0,0,0,0,0,0
2.905,0.625,0,0,0,0,0
2.906,-0.3125,0,0,0,0,0
2.907,-0.625,0,0,0,0,0
2.908,0.3125,0,0,0,0,0
2.909,0,0,0,0,0,0
2.91,0,0,0,0,0,0
2.911,0,0,0,0,0,0
2.912,0,0,0,0,0,0
2.913,0,0,0,0,0,0
2.914,0.625,0,0,0,0,0
2.915,0.625,0,0,0,0,0
2.916,0.625,0,0,0,0,0
2.917,0,0,0,0,0,0
2.918,0,0,0,0,0,0
2.919,0,0,0,0,0,0
2.92,0,0,0,0,0,0
2.921,0,0,0,0,0,0
2.922,0.3125,0,0,0,0,0
2.923,0.625,0,0,0,0,0
2.924,0.3125,0,0,0,0,0
2.925,0,0,0,0,0,0
2.926,0.3125,0,0,0,0,0
2.927,0.625,0,0,0,0,0
2.928,-0.3125,0,0,0,0,0
2.929,-0.625,0,0,0,0,0
2.93,-0.625,0,0,0,0,0
2.931,-1.25,0,0,0,0,0
2.932,-0.9375,0,0,0,0,0
2.933,-0.625,0,0,0,0,0
2.934,-0.9375,0,0,0,0,0
2.935,-1.25,0,0,0,0,0
2.936,-0.9375,0,0,0,0,0
2.937,-0.625,0,0,0,0,0
2.938,-0.625,0,0,0,0,0
2.939,-0.625,0,0,0,0,0
2.94,-0.3125,0,0,0,0,0
2.941,0,0,0,0,0,0
2.942,-0.3125,0,0,0,0,0
2.943,-0.625,0,0,0,0,0
2.944,-0.625,0,0,0,0,0
2.945,-0.625,0,0,0,0,0
2.946,-0.9375,0,0,0,0,0
2.947,-1.25,0,0,0,0,0
2.948,-1.5625,0,0,0,0,0
2.949,-1.875,0,0,0,0,0
2.95,-1.875,0,0,0,0,0
2.951,-1.875,0,0,0,0,0
2.952,-1.25,0,0,0,0,0
2.953,-1.25,0,0,0,0,0
2.954,-0.9375,0,0,0,0,0
2.955,-1.25,0,0,0,0,0
2.956,-1.25,0,0,0,0,0
2.957,-1.875,0,0,0,0,0
2.958,-1.25,0,0,0,0,0
2.959,-1.25,0,0,0,0,0
2.96,-0.9375,0,0,0,0,0
2.961,-0.625,0,0,0,0,0
2.962,-1.25,0,0,0,0,0
2.963,-1.25,0,0,0,0,0
2.964,-1.5625,0,0,0,0,0
2.965,-1.25,0,0,0,0,0
2.966,-1.25,0,0,0,0,0
2.967,-1.25,0,0,0,0,0
2.968,-0.625,0,0,0,0,0
2.969,-1.25,0,0,0,0,0
2.97,-1.875,0,0,0,0,0
2.971,-1.875,0,0,0,0,0
2.972,-1.5625,0,0,0,0,0
2.973,-1.25,0,0,0,0,0
2.974,-1.5625,0,0,0,0,0
2.975,-1.25,0,0,0,0,0
2.976,-1.25,0,0,0,0,0
2.977,-1.25,0,0,0,0,0
2.978,-0.9375,0,0,0,0,0
2.979,-0.625,0,0,0,0,0
2.98,-0.3125,0,0,0,0,0
2.981,-0.625,0,0,0,0,0
2.982,-0.625,0,0,0,0,0
2.983,-0.625,0,0,0,0,0
2.984,-0.625,0,0,0,0,0
2.985,-0.625,0,0,0,0,0
2.986,-0.3125,0,0,0,0,0
2.987,0,0,0,0,0,0
2.988,0,0,0,0,0,0
2.989,0,0,0,0,0,0
2.99,-0.625,0,0,0,0,0
2.991,-0.625,0,0,0,0,0
2.992,-0.625,0,0,0,0,0
2.993,0,0,0,0,0,0
2.994,0.625,0,0,0,0,0
2.995,1.25,0,0,0,0,0
2.996,0.9375,0,0,0,0,0
2.997,0.625,0,0,0,0,0
2.998,1.25,0,0,0,0,0
2.999,1.875,0,0,0,0,0
3,1.25,1,0,0,0,0
3.001,1.875,0,0,0,0,0
3.002,2.1875,0,0,0,0,0
3.003,1.875,0,0,0,0,0
3.004,2.5,0,0,0,0,0
3.005,3.125,0,0,0,0,0
3.006,4.375,0,0,0,0,0
3.007,5,0,0,0,0,0
3.008,5,0,0,0,0,0
3.009,5,0,0,0,0,0
3.01,5.625,0,0,0,0,0
3.011,5.625,0,0,0,0,0
3.012,6.25,0,0,0,0,0
3.013,6.875,0,0,0,0,0
3.014,8.125,0,0,0,0,0
3.015,8.75,0,0,0,0,0
3.016,9.375,0,0,0,0,0
3.017,10,0,0,0,0,0
3.018,11.563,0,0,0,0,0
3.019,13.125,0,0,0,0,0
3.02,14.688,0,0,0,0,0
3.021,15.625,0,0,0,0,0
3.022,17.188,0,0,0,0,0
3.023,18.75,0,0,0,0,0
3.024,20,0,0,0,0,0
3.025,21.25,0,0,0,0,0
3.026,24.375,0,0,0,0,0
3.027,28.125,0,0,0,0,0
3.028,30.938,0,0,0,0,0
3.029,34.375,0,0,0,0,0
3.03,38.125,0,0,0,0,0
3.031,41.875,0,0,0,0,0
3.032,45,0,0,0,0,0
3.033,48.75,0,0,0,0,0
3.034,52.5,0,0,0,0,0
3.035,56.875,0,0,0,0,0
3.036,59.688,0,0,0,0,0
3.037,61.875,0,0,0,0,0
3.038,65.313,0,0,0,0,0
3.039,68.75,0,0,0,0,0
3.04,70.938,0,1,0,0,0
3.041,71.875,0,0,0,0,0
3.042,71.875,0,0,0,0,0
3.043,71.25,0,0,0,0,0
3.044,69.688,0,0,0,0,0
3.045,68.125,0,0,0,0,0
3.046,67.5,0,0,0,0,0
3.047,65.625,0,0,0,0,0
3.048,62.188,0,0,0,0,0
3.049,56.875,0,0,0,0,0
3.05,51.875,0,0,0,0,0
3.051,43.125,0,0,0,0,0
3.052,30,0,0,0,0,0
3.053,17.5,0,0,0,0,0
3.054,7.1875,0,0,0,0,0
3.055,-1.875,0,0,0,0,0
3.056,-10,0,0,0,0,0
3.057,-18.75,0,0,0,0,0
3.058,-29.375,0,0,0,0,0
3.059,-41.25,0,0,0,0,0
3.06,-52.188,0,0,0,0,0
3.061,-59.375,0,0,0,0,0
3.062,-63.125,0,0,0,0,0
3.063,-65.625,0,0,0,0,0
3.064,-66.25,0,0,0,0,0
3.065,-66.25,0,0,0,0,0
3.066,-64.688,0,0,0,0,0
3.067,-61.875,0,0,0,0,0
3.068,-59.375,0,0,0,0,0
3.069,-57.5,0,0,0,0,0
3.07,-55.625,0,0,0,0,0
3.071,-53.75,0,0,0,0,0
3.072,-49.063,0,0,0,0,0
3.073,-45,0,0,0,0,0
3.074,-40.625,0,0,0,0,0
3.075,-36.25,0,0,0,0,0
3.076,-32.5,0,0,0,0,0
3.077,-29.375,0,0,0,0,0
3.078,-26.25,0,0,0,0,0
3.079,-23.125,0,0,0,0,0
3.08,-20.938,0,0,0,0,0
3.081,-17.5,0,0,0,0,0
3.082,-15.938,0,0,0,0,0
3.083,-13.75,0,0,0,0,0
3.084,-13.125,0,0,0,0,0
3.085,-11.875,0,0,0,0,0
3.086,-9.6875,0,0,0,0,0
3.087,-8.125,0,0,0,0,0
3.088,-8.4375,0,0,0,0,0
3.089,-7.5,0,0,0,0,0
3.09,-6.25,0,0,0,0,0
3.091,-5,0,0,0,0,0
3.092,-3.4375,0,0,0,0,0
3.093,-2.5,0,0,0,0,0
3.094,-1.875,0,0,1,0,0
3.095,-1.25,0,0,0,0,0
3.096,-1.5625,0,0,0,0,0
3.097,-1.875,0,0,0,0,0
3.098,-1.5625,0,0,0,0,0
3.099,-1.25,0,0,0,0,0
3.1,-1.5625,0,0,0,0,0
3.101,-1.25,0,0,0,0,0
3.102,-0.625,0,0,0,0,0
3.103,0,0,0,0,0,0
3.104,-0.3125,0,0,0,0,0
3.105,0,0,0,0,0,0
3.106,-0.625,0,0,0,0,0
3.107,0,0,0,0,0,0
3.108,0,0,0,0,0,0
3.109,0,0,0,0,0,0
3.11,0.3125,0,0,0,0,0
3.111,0.625,0,0,0,0,0
3.112,0.3125,0,0,0,0,0
3.113,0,0,0,0,0,0
3.114,0.9375,0,0,0,0,0
3.115,1.875,0,0,0,0,0
3.116,2.1875,0,0,0,0,0
3.117,1.875,0,0,0,0,0
3.118,1.875,0,0,0,0,0
3.119,1.875,0,0,0,0,0
3.12,1.875,0,0,0,0,0
3.121,1.25,0,0,0,0,0
3.122,0.9375,0,0,0,0,0
3.123,1.25,0,0,0,0,0
3.124,1.25,0,0,0,0,0
3.125,1.25,0,0,0,0,0
3.126,0.9375,0,0,0,0,0
3.127,1.25,0,0,0,0,0
3.128,1.875,0,0,0,0,0
3.129,0.625,0,0,0,0,0
3.13,1.25,0,0,0,0,0
3.131,1.25,0,0,0,0,0
3.132,1.25,0,0,0,0,0
3.133,1.25,0,0,0,0,0
3.134,1.875,0,0,0,0,0
3.135,2.5,0,0,0,0,0
3.136,2.8125,0,0,0,0,0
3.137,3.125,0,0,0,0,0
3.138,3.125,0,0,0,0,0
3.139,3.125,0,0,0,0,0
3.14,3.4375,0,0,0,0,0
3.141,3.75,0,0,0,0,0
3.142,4.6875,0,0,0,0,0
3.143,4.375,0,0,0,0,0
3.144,4.0625,0,0,0,0,0
3.145,3.125,0,0,0,0,0
3.146,3.125,0,0,0,0,0
3.147,3.125,0,0,0,0,0
3.148,2.5,0,0,0,0,0
3.149,3.125,0,0,0,0,0
3.15,2.1875,0,0,0,0,0
3.151,1.875,0,0,0,0,0
3.152,2.1875,0,0,0,0,0
3.153,2.5,0,0,0,0,0
3.154,2.1875,0,0,0,0,0
3.155,2.5,0,0,0,0,0
3.156,2.5,0,0,0,0,0
3.157,2.5,0,0,0,0,0
3.158,2.5,0,0,0,0,0
3.159,2.5,0,0,0,0,0
3.16,2.8125,0,0,0,0,0
3.161,3.125,0,0,0,0,0
3.162,2.1875,0,0,0,0,0
3.163,1.875,0,0,0,0,0
3.164,2.5,0,0,0,0,0
3.165,1.875,0,0,0,0,0
3.166,1.5625,0,0,0,0,0
3.167,1.875,0,0,0,0,0
3.168,1.5625,0,0,0,0,0
3.169,1.25,0,0,0,0,0
3.17,1.25,0,0,0,0,0
3.171,1.25,0,0,0,0,0
3.172,1.5625,0,0,0,0,0
3.173,1.875,0,0,0,0,0
3.174,2.1875,0,0,0,0,0
3.175,2.5,0,0,0,0,0
3.176,3.125,0,0,0,0,0
3.177,2.5,0,0,0,0,0
3.178,2.1875,0,0,0,0,0
3.179,2.5,0,0,0,0,0
3.18,2.1875,0,0,0,0,0
3.181,1.875,0,0,0,0,0
3.182,2.1875,0,0,0,0,0
3.183,2.5,0,0,0,0,0
3.184,2.5,0,0,0,0,0
3.185,2.5,0,0,0,0,0
3.186,1.875,0,0,0,0,0
3.187,2.5,0,0,0,0,0
3.188,2.5,0,0,0,0,0
3.189,2.5,0,0,0,0,0
3.19,2.5,0,0,0,0,0
3.191,1.875,0,0,0,0,0
3.192,2.1875,0,0,0,0,0
3.193,1.875,0,0,0,0,0
3.194,2.1875,0,0,0,0,0
3.195,2.5,0,0,0,0,0
3.196,2.1875,0,0,0,0,0
3.197,2.5,0,0,0,0,0
3.198,2.8125,0,0,0,0,0
3.199,3.125,0,0,0,0,0
3.2,3.125,0,0,0,0,0
3.201,3.125,0,0,0,0,0
3.202,3.75,0,0,0,0,0
3.203,3.125,0,0,0,0,0
3.204,2.8125,0,0,0,0,0
3.205,3.125,0,0,0,0,0
3.206,2.8125,0,0,0,0,0
3.207,3.125,0,0,0,0,0
3.208,3.125,0,0,0,0,0
3.209,3.75,0,0,0,0,0
3.21,3.75,0,0,0,0,0
3.211,3.75,0,0,0,0,0
3.212,3.75,0,0,0,0,0
3.213,3.75,0,0,0,0,0
3.214,3.125,0,0,0,0,0
3.215,3.75,0,0,0,0,0
3.216,3.4375,0,0,0,0,0
3.217,3.125,0,0,0,0,0
3.218,3.125,0,0,0,0,0
3.219,3.125,0,0,0,0,0
3.22,3.4375,0,0,0,0,0
3.221,3.75,0,0,0,0,0
3.222,3.75,0,0,0,0,0
3.223,3.75,0,0,0,0,0
3.224,4.375,0,0,0,0,0
3.225,4.375,0,0,0,0,0
3.226,4.0625,0,0,0,0,0
3.227,3.75,0,0,0,0,0
3.228,3.75,0,0,0,0,0
3.229,4.375,0,0,0,0,0
3.23,4.6875,0,0,0,0,0
3.231,4.375,0,0,0,0,0
3.232,5.3125,0,0,0,0,0
3.233,5.625,0,0,0,0,0
3.234,5.3125,0,0,0,0,0
3.235,5,0,0,0,0,0
3.236,5,0,0,0,0,0
3.237,5,0,0,0,0,0
3.238,5,0,0,0,0,0
3.239,5,0,0,0,0,0
3.24,5.3125,0,0,0,0,0
3.241,5,0,0,0,0,0
3.242,5,0,0,0,0,0
3.243,5,0,0,0,0,0
3.244,5,0,0,0,0,0
3.245,5,0,0,0,0,0
3.246,4.375,0,0,0,0,0
3.247,3.75,0,0,0,0,0
3.248,5,0,0,0,0,0
3.249,5.625,0,0,0,0,0
3.25,5.625,0,0,0,0,0
3.251,5.625,0,0,0,0,0
3.252,5.9375,0,0,0,0,0
3.253,6.25,0,0,0,0,0
3.254,5.9375,0,0,0,0,0
3.255,5.625,0,0,0,0,0
3.256,5.9375,0,0,0,0,0
3.257,5.625,0,0,0,0,0
3.258,6.25,0,0,0,0,0
3.259,6.25,0,0,0,0,0
3.26,6.875,0,0,0,0,0
3.261,6.875,0,0,0,0,0
3.262,6.25,0,0,0,0,0
3.263,6.25,0,0,0,0,0
3.264,5.9375,0,0,0,0,0
3.265,6.25,0,0,0,0,0
3.266,6.5625,0,0,0,0,0
3.267,6.875,0,0,0,0,0
3.268,7.1875,0,0,0,0,0
3.269,7.5,0,0,0,0,0
3.27,7.1875,0,0,0,0,0
3.271,6.875,0,0,0,0,0
3.272,7.5,0,0,0,0,0
3.273,6.875,0,0,0,0,0
3.274,7.5,0,0,0,0,0
3.275,7.5,0,0,0,0,0
3.276,7.8125,0,0,0,0,0
3.277,7.5,0,0,0,0,0
3.278,7.8125,0,0,0,0,0
3.279,8.125,0,0,0,0,0
3.28,9.0625,0,0,0,0,0
3.281,9.375,0,0,0,0,0
3.282,9.0625,0,0,0,0,0
3.283,8.75,0,0,0,0,0
3.284,8.125,0,0,0,0,0
3.285,8.125,0,0,0,0,0
3.286,8.4375,0,0,0,0,0
3.287,8.75,0,0,0,0,0
3.288,9.6875,0,0,0,0,0
3.289,10,0,0,0,0,0
3.29,10,0,0,0,0,0
3.291,10,0,0,0,0,0
3.292,10.625,0,0,0,0,0
3.293,10,0,0,0,0,0
3.294,10.938,0,0,0,0,0
3.295,11.25,0,0,0,0,0
3.296,10.938,0,0,0,0,0
3.297,10.625,0,0,0,0,0
3.298,11.563,0,0,0,0,0
3.299,11.875,0,0,0,0,0
3.3,11.563,0,0,0,0,0
3.301,11.875,0,0,0,0,0
3.302,12.188,0,0,0,0,0
3.303,12.5,0,0,0,0,0
3.304,12.813,0,0,0,0,0
3.305,13.125,0,0,0,0,0
3.306,12.5,0,0,0,0,0
3.307,12.5,0,0,0,0,0
3.308,12.5,0,0,0,0,0
3.309,12.5,0,0,0,0,0
3.31,12.5,0,0,0,0,0
3.311,12.5,0,0,0,0,0
3.312,13.125,0,0,0,0,0
3.313,13.125,0,0,0,0,0
3.314,13.438,0,0,0,0,0
3.315,14.375,0,0,0,0,0
3.316,14.375,0,0,0,0,0
3.317,13.75,0,0,0,0,0
3.318,14.375,0,0,0,0,0
3.319,14.375,0,0,0,0,0
3.32,14.375,0,0,0,0,0
3.321,14.375,0,0,0,0,0
3.322,14.688,0,0,0,0,0
3.323,15,0,0,0,0,0
3.324,15,0,0,0,0,0
3.325,15.625,0,0,0,0,0
3.326,15.625,0,0,0,0,0
3.327,15.625,0,0,0,0,0
3.328,16.25,0,0,0,0,0
3.329,16.25,0,0,0,0,0
3.33,15.313,0,0,0,0,0
3.331,15,0,0,0,0,0
3.332,15,0,0,0,0,0
3.333,15,0,0,0,0,0
3.334,15.625,0,0,0,0,0
3.335,15.625,0,0,0,0,0
3.336,15.625,0,0,0,0,0
3.337,15.625,0,0,0,0,0
3.338,15.938,0,0,0,0,0
3.339,16.25,0,0,0,0,0
3.34,15.938,0,0,0,0,0
3.341,16.25,0,0,0,0,0
3.342,15.938,0,0,0,0,0
3.343,15.625,0,0,0,0,0
3.344,15.625,0,0,0,0,0
3.345,15.625,0,0,0,0,0
3.346,15.313,0,0,0,0,0
3.347,15.625,0,0,0,0,0
3.348,16.25,0,0,0,0,0
3.349,16.25,0,0,0,0,0
3.35,16.563,0,0,0,0,0
3.351,16.875,0,0,0,0,0
3.352,16.875,0,0,0,0,0
3.353,16.875,0,0,0,0,0
3.354,16.875,0,0,0,1,0
3.355,16.875,0,0,0,0,0
3.356,17.813,0,0,0,0,0
3.357,17.5,0,0,0,0,0
3.358,17.188,0,0,0,0,0
3.359,16.875,0,0,0,0,0
3.36,16.563,0,0,0,0,0
3.361,16.25,0,0,0,0,0
3.362,16.25,0,0,0,0,0
3.363,16.25,0,0,0,0,0
3.364,15.625,0,0,0,0,0
3.365,15.625,0,0,0,0,0
3.366,15.313,0,0,0,0,0
3.367,15.625,0,0,0,0,0
3.368,15.313,0,0,0,0,0
3.369,15,0,0,0,0,0
3.37,14.375,0,0,0,0,0
3.371,14.375,0,0,0,0,0
3.372,14.063,0,0,0,0,0
3.373,13.75,0,0,0,0,0
3.374,14.375,0,0,0,0,0
3.375,14.375,0,0,0,0,0
3.376,13.438,0,0,0,0,0
3.377,12.5,0,0,0,0,0
3.378,12.188,0,0,0,0,0
3.379,11.875,0,0,0,0,0
3.38,12.813,0,0,0,0,0
3.381,13.125,0,0,0,0,0
3.382,13.75,0,0,0,0,0
3.383,13.75,0,0,0,0,0
3.384,13.438,0,0,0,0,0
3.385,12.5,0,0,0,0,0
3.386,12.5,0,0,0,0,0
3.387,12.5,0,0,0,0,0
3.388,11.875,0,0,0,0,0
3.389,11.875,0,0,0,0,0
3.39,11.563,0,0,0,0,0
3.391,11.25,0,0,0,0,0
3.392,10.625,0,0,0,0,0
3.393,10.625,0,0,0,0,0
3.394,10.625,0,0,0,0,0
3.395,10,0,0,0,0,0
3.396,10,0,0,0,0,0
3.397,9.375,0,0,0,0,0
3.398,9.375,0,0,0,0,0
3.399,9.375,0,0,0,0,0
3.4,9.375,0,0,0,0,0
3.401,9.375,0,0,0,0,0
3.402,9.6875,0,0,0,0,0
3.403,10,0,0,0,0,0
3.404,8.75,0,0,0,0,0
3.405,8.125,0,0,0,0,0
3.406,8.125,0,0,0,0,0
3.407,8.125,0,0,0,0,0
3.408,7.8125,0,0,0,0,0
3.409,7.5,0,0,0,0,0
3.41,6.875,0,0,0,0,0
3.411,6.25,0,0,0,0,0
3.412,6.25,0,0,0,0,0
3.413,6.25,0,0,0,0,0
3.414,6.5625,0,0,0,0,0
3.415,6.875,0,0,0,0,0
3.416,6.25,0,0,0,0,0
3.417,6.25,0,0,0,0,0
3.418,6.5625,0,0,0,0,0
3.419,6.25,0,0,0,0,0
3.42,6.25,0,0,0,0,0
3.421,6.25,0,0,0,0,0
3.422,5.9375,0,0,0,0,0
3.423,5.625,0,0,0,0,0
3.424,5.9375,0,0,0,0,0
3.425,6.25,0,0,0,0,0
3.426,6.25,0,0,0,0,0
3.427,6.25,0,0,0,0,0
3.428,5.9375,0,0,0,0,0
3.429,6.25,0,0,0,0,0
3.43,5.3125,0,0,0,0,0
3.431,4.375,0,0,0,0,0
3.432,4.6875,0,0,0,0,0
3.433,3.75,0,0,0,0,0
3.434,3.75,0,0,0,0,0
3.435,3.75,0,0,0,0,0
3.436,3.75,0,0,0,0,0
3.437,3.75,0,0,0,0,0
3.438,3.75,0,0,0,0,0
3.439,3.75,0,0,0,0,0
3.44,3.75,0,0,0,0,0
3.441,3.75,0,0,0,0,0
3.442,4.0625,0,0,0,0,0
3.443,3.75,0,0,0,0,0
3.444,3.75,0,0,0,0,0
3.445,3.125,0,0,0,0,0
3.446,2.8125,0,0,0,0,0
3.447,2.5,0,0,0,0,0
3.448,2.8125,0,0,0,0,0
3.449,3.125,0,0,0,0,0
3.45,3.125,0,0,0,0,0
3.451,3.125,0,0,0,0,0
3.452,3.125,0,0,0,0,0
3.453,3.125,0,0,0,0,0
3.454,3.4375,0,0,0,0,0
3.455,3.75,0,0,0,0,0
3.456,3.75,0,0,0,0,0
3.457,3.125,0,0,0,0,0
3.458,2.8125,0,0,0,0,0
3.459,2.5,0,0,0,0,0
3.46,2.1875,0,0,0,0,0
3.461,1.875,0,0,0,0,1
3.462,1.25,0,0,0,0,0
3.463,0.625,0,0,0,0,0
3.464,0.9375,0,0,0,0,0
3.465,1.25,0,0,0,0,0
3.466,1.25,0,0,0,0,0
3.467,1.875,0,0,0,0,0
3.468,1.5625,0,0,0,0,0
3.469,1.25,0,0,0,0,0
3.47,0.9375,0,0,0,0,0
3.471,0,0,0,0,0,0
3.472,0.9375,0,0,0,0,0
3.473,1.25,0,0,0,0,0
3.474,1.875,0,0,0,0,0
3.475,1.875,0,0,0,0,0
3.476,2.1875,0,0,0,0,0
3.477,2.5,0,0,0,0,0
3.478,1.875,0,0,0,0,0
3.479,1.875,0,0,0,0,0
3.48,1.875,0,0,0,0,0
3.481,1.875,0,0,0,0,0
3.482,2.5,0,0,0,0,0
3.483,1.875,0,0,0,0,0
3.484,1.875,0,0,0,0,0
3.485,1.875,0,0,0,0,0
3.486,1.875,0,0,0,0,0
3.487,1.875,0,0,0,0,0
3.488,1.875,0,0,0,0,0
3.489,1.875,0,0,0,0,0
3.49,1.875,0,0,0,0,0
3.491,1.25,0,0,0,0,0
3.492,1.875,0,0,0,0,0
3.493,1.875,0,0,0,0,0
3.494,2.1875,0,0,0,0,0
3.495,1.875,0,0,0,0,0
3.496,2.1875,0,0,0,0,0
3.497,1.25,0,0,0,0,0
3.498,0.9375,0,0,0,0,0
3.499,0.625,0,0,0,0,0
3.5,0.625,0,0,0,0,0
3.501,1.25,0,0,0,0,0
3.502,1.5625,0,0,0,0,0
3.503,1.875,0,0,0,0,0
3.504,0.9375,0,0,0,0,0
3.505,1.25,0,0,0,0,0
3.506,0.3125,0,0,0,0,0
3.507,0.625,0,0,0,0,0
3.508,0.625,0,0,0,0,0
3.509,0.625,0,0,0,0,0
3.51,0.9375,0,0,0,0,0
3.511,0.625,0,0,0,0,0
3.512,0.625,0,0,0,0,0
3.513,0.625,0,0,0,0,0
3.514,0.9375,0,0,0,0,0
3.515,1.25,0,0,0,0,0
3.516,1.25,0,0,0,0,0
3.517,1.25,0,0,0,0,0
3.518,1.875,0,0,0,0,0
3.519,1.25,0,0,0,0,0
3.52,1.5625,0,0,0,0,0
3.521,1.875,0,0,0,0,0
3.522,1.5625,0,0,0,0,0
3.523,1.25,0,0,0,0,0
3.524,0.9375,0,0,0,0,0
3.525,0.625,0,0,0,0,0
3.526,0.625,0,0,0,0,0
3.527,0.625,0,0,0,0,0
3.528,0.3125,0,0,0,0,0
3.529,0.625,0,0,0,0,0
3.53,0.625,0,0,0,0,0
3.531,0,0,0,0,0,0
3.532,0.3125,0,0,0,0,0
3.533,0.625,0,0,0,0,0
3.534,0.9375,0,0,0,0,0
3.535,1.25,0,0,0,0,0
3.536,0.9375,0,0,0,0,0
3.537,0.625,0,0,0,0,0
3.538,1.5625,0,0,0,0,0
3.539,1.25,0,0,0,0,0
3.54,1.25,0,0,0,0,0
3.541,1.25,0,0,0,0,0
3.542,1.25,0,0,0,0,0
3.543,1.25,0,0,0,0,0
3.544,1.5625,0,0,0,0,0
3.545,1.875,0,0,0,0,0
3.546,1.5625,0,0,0,0,0
3.547,1.875,0,0,0,0,0
3.548,1.875,0,0,0,0,0
3.549,1.875,0,0,0,0,0
3.55,1.25,0,0,0,0,0
3.551,1.25,0,0,0,0,0
3.552,0.9375,0,0,0,0,0
3.553,0.625,0,0,0,0,0
3.554,0.625,0,0,0,0,0
3.555,0.625,0,0,0,0,0
3.556,0.625,0,0,0,0,0
3.557,0.625,0,0,0,0,0
3.558,0,0,0,0,0,0
3.559,0.625,0,0,0,0,0
3.56,1.25,0,0,0,0,0
3.561,1.25,0,0,0,0,0
3.562,1.25,0,0,0,0,0
3.563,1.25,0,0,0,0,0
3.564,0.625,0,0,0,0,0
3.565,0,0,0,0,0,0
3.566,0,0,0,0,0,0
3.567,0.625,0,0,0,0,0
3.568,0.625,0,0,0,0,0
3.569,0,0,0,0,0,0
3.57,0.625,0,0,0,0,0
3.571,0,0,0,0,0,0
3.572,0.3125,0,0,0,0,0
3.573,0,0,0,0,0,0
3.574,0.625,0,0,0,0,0
3.575,1.25,0,0,0,0,0
3.576,0.9375,0,0,0,0,0
3.577,0.625,0,0,0,0,0
3.578,0.9375,0,0,0,0,0
3.579,0.625,0,0,0,0,0
3.58,0.625,0,0,0,0,0
3.581,0.625,0,0,0,0,0
3.582,0.3125,0,0,0,0,0
3.583,0,0,0,0,0,0
3.584,0,0,0,0,0,0
3.585,0,0,0,0,0,0
3.586,-0.9375,0,0,0,0,0
3.587,-0.625,0,0,0,0,0
3.588,-0.3125,0,0,0,0,0
3.589,0,0,0,0,0,0
3.59,0,0,0,0,0,0
3.591,0,0,0,0,0,0
3.592,0.625,0,0,0,0,0
3.593,0.625,0,0,0,0,0
3.594,0,0,0,0,0,0
3.595,0,0,0,0,0,0
3.596,0,0,0,0,0,0
3.597,0,0,0,0,0,0
3.598,0.3125,0,0,0,0,0
3.599,0.625,0,0,0,0,0
3.6,0.625,0,0,0,0,0
3.601,0.625,0,0,0,0,0
3.602,0.625,0,0,0,0,0
3.603,0.625,0,0,0,0,0
3.604,0,0,0,0,0,0
3.605,0.625,0,0,0,0,0
3.606,0.625,0,0,0,0,0
3.607,0,0,0,0,0,0
3.608,0,0,0,0,0,0
3.609,0,0,0,0,0,0
3.61,0.3125,0,0,0,0,0
3.611,0.625,0,0,0,0,0
3.612,0.3125,0,0,0,0,0
3.613,0,0,0,0,0,0
3.614,0,0,0,0,0,0
3.615,0,0,0,0,0,0
3.616,-0.3125,0,0,0,0,0
3.617,-0.625,0,0,0,0,0
3.618,-0.9375,0,0,0,0,0
3.619,-1.25,0,0,0,0,0
3.62,-0.625,0,0,0,0,0
3.621,-0.625,0,0,0,0,0
3.622,-0.3125,0,0,0,0,0
3.623,-0.625,0,0,0,0,0
3.624,-0.3125,0,0,0,0,0
3.625,0,0,0,0,0,0
3.626,-0.3125,0,0,0,0,0
3.627,-0.625,0,0,0,0,0
3.628,-0.625,0,0,0,0,0
3.629,-0.625,0,0,0,0,0
3.63,0,0,0,0,0,0
3.631,0.625,0,0,0,0,0
3.632,0.625,0,0,0,0,0
3.633,0.625,0,0,0,0,0
3.634,0.3125,0,0,0,0,0
3.635,0,0,0,0,0,0
3.636,-0.3125,0,0,0,0,0
3.637,-0.625,0,0,0,0,0
3.638,-0.9375,0,0,0,0,0
3.639,-1.25,0,0,0,0,0
3.64,-1.25,0,0,0,0,0
3.641,-1.25,0,0,0,0,0
3.642,-1.25,0,0,0,0,0
3.643,-1.25,0,0,0,0,0
3.644,-1.25,0,0,0,0,0
3.645,-1.25,0,0,0,0,0
3.646,-1.25,0,0,0,0,0
3.647,-1.25,0,0,0,0,0
3.648,-0.9375,0,0,0,0,0
3.649,-0.625,0,0,0,0,0
3.65,-0.3125,0,0,0,0,0
3.651,0,0,0,0,0,0
3.652,-0.9375,0,0,0,0,0
3.653,-1.25,0,0,0,0,0
3.654,-0.9375,0,0,0,0,0
3.655,-0.625,0,0,0,0,0
3.656,-0.3125,0,0,0,0,0
3.657,0,0,0,0,0,0
3.658,-0.9375,0,0,0,0,0
3.659,-1.875,0,0,0,0,0
3.66,-1.5625,0,0,0,0,0
3.661,-1.25,0,0,0,0,0
3.662,-1.25,0,0,0,0,0
3.663,-1.25,0,0,0,0,0
3.664,-1.25,0,0,0,0,0
3.665,-1.25,0,0,0,0,0
3.666,-1.25,0,0,0,0,0
3.667,-1.25,0,0,0,0,0
3.668,-1.5625,0,0,0,0,0
3.669,-1.25,0,0,0,0,0
3.67,-1.5625,0,0,0,0,0
3.671,-1.25,0,0,0,0,0
3.672,-1.25,0,0,0,0,0
3.673,-1.25,0,0,0,0,0
3.674,-1.5625,0,0,0,0,0
3.675,-1.875,0,0,0,0,0
3.676,-1.875,0,0,0,0,0
3.677,-1.875,0,0,0,0,0
3.678,-1.875,0,0,0,0,0
3.679,-1.875,0,0,0,0,0
3.68,-1.5625,0,0,0,0,0
3.681,-1.875,0,0,0,0,0
3.682,-1.5625,0,0,0,0,0
3.683,-1.25,0,0,0,0,0
3.684,-1.5625,0,0,0,0,0
3.685,-1.25,0,0,0,0,0
3.686,-1.5625,0,0,0,0,0
3.687,-1.875,0,0,0,0,0
3.688,-1.5625,0,0,0,0,0
3.689,-1.25,0,0,0,0,0
3.69,-1.25,0,0,0,0,0
3.691,-0.625,0,0,0,0,0
3.692,-1.25,0,0,0,0,0
3.693,-1.25,0,0,0,0,0
3.694,-1.25,0,0,0,0,0
3.695,-1.25,0,0,0,0,0
3.696,-1.875,0,0,0,0,0
3.697,-2.5,0,0,0,0,0
3.698,-2.5,0,0,0,0,0
3.699,-2.5,0,0,0,0,0
3.7,-2.8125,0,0,0,0,0
3.701,-3.125,0,0,0,0,0
3.702,-2.8125,0,0,0,0,0
3.703,-2.5,0,0,0,0,0
3.704,-2.8125,0,0,0,0,0
3.705,-3.125,0,0,0,0,0
3.706,-2.1875,0,0,0,0,0
3.707,-2.5,0,0,0,0,0
3.708,-2.5,0,0,0,0,0
3.709,-2.5,0,0,0,0,0
3.71,-2.1875,0,0,0,0,0
3.711,-1.875,0,0,0,0,0
3.712,-2.1875,0,0,0,0,0
3.713,-1.875,0,0,0,0,0
3.714,-2.1875,0,0,0,0,0
3.715,-1.875,0,0,0,0,0
3.716,-2.5,0,0,0,0,0
3.717,-3.125,0,0,0,0,0
3.718,-2.8125,0,0,0,0,0
3.719,-3.125,0,0,0,0,0
3.72,-3.125,0,0,0,0,0
3.721,-2.5,0,0,0,0,0
3.722,-2.5,0,0,0,0,0
3.723,-1.875,0,0,0,0,0
3.724,-1.5625,0,0,0,0,0
3.725,-1.25,0,0,0,0,0
3.726,-1.875,0,0,0,0,0
3.727,-1.875,0,0,0,0,0
3.728,-1.875,0,0,0,0,0
3.729,-1.875,0,0,0,0,0
3.73,-2.5,0,0,0,0,0
3.731,-2.5,0,0,0,0,0
3.732,-2.5,0,0,0,0,0
3.733,-2.5,0,0,0,0,0
3.734,-2.1875,0,0,0,0,0
3.735,-1.875,0,0,0,0,0
3.736,-2.1875,0,0,0,0,0
3.737,-1.875,0,0,0,0,0
3.738,-2.1875,0,0,0,0,0
3.739,-1.875,0,0,0,0,0
3.74,-1.875,0,0,0,0,0
3.741,-1.875,0,0,0,0,0
3.742,-1.25,0,0,0,0,0
3.743,-1.25,0,0,0,0,0
3.744,-1.875,0,0,0,0,0
3.745,-1.875,0,0,0,0,0
3.746,-0.625,0,0,0,0,0
3.747,0,0,0,0,0,0
3.748,0,0,0,0,0,0
3.749,0,0,0,0,0,0
3.75,-0.625,0,0,0,0,0
3.751,-1.875,0,0,0,0,0
3.752,-2.1875,0,0,0,0,0
3.753,-3.125,0,0,0,0,0
3.754,-3.125,0,0,0,0,0
3.755,-3.125,0,0,0,0,0
3.756,-3.75,0,0,0,0,0
3.757,-3.75,0,0,0,0,0
3.758,-3.75,0,0,0,0,0
3.759,-3.75,0,0,0,0,0
3.76,-3.75,0,0,0,0,0
3.761,-3.75,0,0,0,0,0
3.762,-2.8125,0,0,0,0,0
3.763,-1.875,0,0,0,0,0
3.764,-2.1875,0,0,0,0,0
3.765,-2.5,0,0,0,0,0
3.766,-3.4375,0,0,0,0,0
3.767,-3.75,0,0,0,0,0
3.768,-3.125,0,0,0,0,0
3.769,-3.125,0,0,0,0,0
3.77,-2.8125,0,0,0,0,0
3.771,-3.125,0,0,0,0,0
3.772,-2.8125,0,0,0,0,0
3.773,-2.5,0,0,0,0,0
3.774,-2.8125,0,0,0,0,0
3.775,-3.125,0,0,0,0,0
3.776,-3.125,0,0,0,0,0
3.777,-3.125,0,0,0,0,0
3.778,-2.5,0,0,0,0,0
3.779,-1.875,0,0,0,0,0
3.78,-1.875,0,0,0,0,0
3.781,-1.875,0,0,0,0,0
3.782,-3.125,0,0,0,0,0
3.783,-3.125,0,0,0,0,0
3.784,-3.125,0,0,0,0,0
3.785,-3.75,0,0,0,0,0
3.786,-3.75,0,0,0,0,0
3.787,-3.75,0,0,0,0,0
3.788,-3.4375,0,0,0,0,0
3.789,-3.125,0,0,0,0,0
3.79,-3.125,0,0,0,0,0
3.791,-3.125,0,0,0,0,0
3.792,-3.125,0,0,0,0,0
3.793,-3.125,0,0,0,0,0
3.794,-2.8125,0,0,0,0,0
3.795,-2.5,0,0,0,0,0
3.796,-2.5,0,0,0,0,0
3.797,-2.5,0,0,0,0,0
3.798,-3.125,0,0,0,0,0
3.799,-2.5,0,0,0,0,0
3.8,-2.5,0,0,0,0,0
3.801,-2.5,0,0,0,0,0
3.802,-2.8125,0,0,0,0,0
3.803,-3.125,0,0,0,0,0
3.804,-3.4375,0,0,0,0,0
3.805,-3.75,0,0,0,0,0
3.806,-3.125,0,0,0,0,0
3.807,-3.125,0,0,0,0,0
3.808,-2.5,0,0,0,0,0
3.809,-1.875,0,0,0,0,0
3.81,-2.5,0,0,0,0,0
3.811,-2.5,0,0,0,0,0
3.812,-2.8125,0,0,0,0,0
3.813,-3.125,0,0,0,0,0
3.814,-2.8125,0,0,0,0,0
3.815,-2.5,0,0,0,0,0
3.816,-2.1875,0,0,0,0,0
3.817,-1.875,0,0,0,0,0
3.818,-2.1875,0,0,0,0,0
3.819,-2.5,0,0,0,0,0
3.82,-2.8125,0,0,0,0,0
3.821,-3.125,0,0,0,0,0
3.822,-2.8125,0,0,0,0,0
3.823,-2.5,0,0,0,0,0
3.824,-2.1875,0,0,0,0,0
3.825,-1.875,0,0,0,0,0
3.826,-2.5,0,0,0,0,0
3.827,-3.125,0,0,0,0,0
3.828,-2.8125,0,0,0,0,0
3.829,-2.5,0,0,0,0,0
3.83,-3.125,0,0,0,0,0
3.831,-3.125,0,0,0,0,0
3.832,-3.125,0,0,0,0,0
3.833,-3.75,0,0,0,0,0
3.834,-4.0625,0,0,0,0,0
3.835,-4.375,0,0,0,0,0
3.836,-3.4375,0,0,0,0,0
3.837,-3.125,0,0,0,0,0
3.838,-2.5,0,0,0,0,0
3.839,-2.5,0,0,0,0,0
3.84,-1.875,0,0,0,0,0
3.841,-1.875,0,0,0,0,0
3.842,-2.5,0,0,0,0,0
3.843,-2.5,0,0,0,0,0
3.844,-2.1875,0,0,0,0,0
3.845,-3.125,0,0,0,0,0
3.846,-2.5,0,0,0,0,0
3.847,-2.5,0,0,0,0,0
3.848,-2.5,0,0,0,0,0
3.849,-3.125,0,0,0,0,0
3.85,-3.4375,0,0,0,0,0
3.851,-3.75,0,0,0,0,0
3.852,-3.4375,0,0,0,0,0
3.853,-2.5,0,0,0,0,0
3.854,-2.8125,0,0,0,0,0
3.855,-2.5,0,0,0,0,0
3.856,-2.5,0,0,0,0,0
3.857,-2.5,0,0,0,0,0
3.858,-2.5,0,0,0,0,0
3.859,-2.5,0,0,0,0,0
3.86,-2.1875,0,0,0,0,0
3.861,-1.875,0,0,0,0,0
3.862,-1.5625,0,0,0,0,0
3.863,-0.625,0,0,0,0,0
3.864,-1.25,0,0,0,0,0
3.865,-1.25,0,0,0,0,0
3.866,-1.5625,0,0,0,0,0
3.867,-1.25,0,0,0,0,0
3.868,-0.3125,0,0,0,0,0
3.869,-0.625,0,0,0,0,0
3.87,-1.25,0,0,0,0,0
3.871,-1.875,0,0,0,0,0
3.872,-0.9375,0,0,0,0,0
3.873,-0.625,0,0,0,0,0
3.874,-0.3125,0,0,0,0,0
3.875,0,0,0,0,0,0
3.876,0,0,0,0,0,0
3.877,0,0,0,0,0,0
3.878,0.3125,0,0,0,0,0
3.879,0.625,0,0,0,0,0
3.88,0.3125,0,0,0,0,0
3.881,0,0,0,0,0,0
3.882,-0.3125,0,0,0,0,0
3.883,-0.625,0,0,0,0,0
3.884,-0.625,0,0,0,0,0
3.885,-0.625,0,0,0,0,0
3.886,-0.9375,0,0,0,0,0
3.887,-1.25,0,0,0,0,0
3.888,-1.25,0,0,0,0,0
3.889,-1.25,0,0,0,0,0
3.89,-1.875,0,0,0,0,0
3.891,-1.875,0,0,0,0,0
3.892,-1.5625,0,0,0,0,0
3.893,-1.25,0,0,0,0,0
3.894,-0.9375,0,0,0,0,0
3.895,-0.625,0,0,0,0,0
3.896,-0.625,0,0,0,0,0
3.897,-0.625,0,0,0,0,0
3.898,-1.5625,0,0,0,0,0
3.899,-1.875,0,0,0,0,0
3.9,-0.9375,0,0,0,0,0
3.901,-0.625,0,0,0,0,0
3.902,-0.3125,0,0,0,0,0
3.903,0.625,0,0,0,0,0
3.904,0.625,0,0,0,0,0
3.905,0.625,0,0,0,0,0
3.906,0.3125,0,0,0,0,0
3.907,0.625,0,0,0,0,0
3.908,0.9375,0,0,0,0,0
3.909,0.625,0,0,0,0,0
3.91,0.9375,0,0,0,0,0
3.911,0.625,0,0,0,0,0
3.912,0.625,0,0,0,0,0
3.913,0.625,0,0,0,0,0
3.914,0.625,0,0,0,0,0
3.915,0,0,0,0,0,0
3.916,0,0,0,0,0,0
3.917,-0.625,0,0,0,0,0
3.918,-0.9375,0,0,0,0,0
3.919,-0.625,0,0,0,0,0
3.92,0,0,0,0,0,0
3.921,0,0,0,0,0,0
3.922,-0.9375,0,0,0,0,0
3.923,-1.25,0,0,0,0,0
3.924,-1.875,0,0,0,0,0
3.925,-1.875,0,0,0,0,0
3.926,-1.875,0,0,0,0,0
3.927,-2.5,0,0,0,0,0
3.928,-2.5,0,0,0,0,0
3.929,-3.125,0,0,0,0,0
3.93,-3.125,0,0,0,0,0
3.931,-3.125,0,0,0,0,0
3.932,-3.4375,0,0,0,0,0
3.933,-3.125,0,0,0,0,0
3.934,-2.8125,0,0,0,0,0
3.935,-2.5,0,0,0,0,0
3.936,-3.125,0,0,0,0,0
3.937,-3.125,0,0,0,0,0
3.938,-3.4375,0,0,0,0,0
3.939,-3.125,0,0,0,0,0
3.94,-3.75,0,0,0,0,0
3.941,-3.75,0,0,0,0,0
3.942,-4.0625,0,0,0,0,0
3.943,-3.75,0,0,0,0,0
3.944,-4.0625,0,0,0,0,0
3.945,-4.375,0,0,0,0,0
3.946,-4.375,0,0,0,0,0
3.947,-4.375,0,0,0,0,0
3.948,-4.375,0,0,0,0,0
3.949,-4.375,0,0,0,0,0
3.95,-4.6875,0,0,0,0,0
3.951,-3.75,0,0,0,0,0
3.952,-2.5,0,0,0,0,0
3.953,-2.5,0,0,0,0,0
3.954,-2.8125,0,0,0,0,0
3.955,-2.5,0,0,0,0,0
3.956,-3.4375,0,0,0,0,0
3.957,-3.75,0,0,0,0,0
3.958,-3.75,0,0,0,0,0
3.959,-3.75,0,0,0,0,0
3.96,-3.75,0,0,0,0,0
3.961,-3.125,0,0,0,0,0
3.962,-3.125,0,0,0,0,0
3.963,-3.125,0,0,0,0,0
3.964,-3.75,0,0,0,0,0
3.965,-3.75,0,0,0,0,0
3.966,-3.75,0,0,0,0,0
3.967,-3.75,0,0,0,0,0
3.968,-3.75,0,0,0,0,0
3.969,-3.75,0,0,0,0,0
3.97,-3.75,0,0,0,0,0
3.971,-3.75,0,0,0,0,0
3.972,-3.75,0,0,0,0,0
3.973,-3.75,0,0,0,0,0
3.974,-3.125,0,0,0,0,0
3.975,-3.125,0,0,0,0,0
3.976,-3.4375,0,0,0,0,0
3.977,-3.75,0,0,0,0,0
3.978,-4.6875,0,0,0,0,0
3.979,-5,0,0,0,0,0
3.98,-4.6875,0,0,0,0,0
3.981,-4.375,0,0,0,0,0
3.982,-4.6875,0,0,0,0,0
3.983,-5,0,0,0,0,0
3.984,-4.6875,0,0,0,0,0
3.985,-4.375,0,0,0,0,0
3.986,-4.0625,0,0,0,0,0
3.987,-3.75,0,0,0,0,0
3.988,-3.75,0,0,0,0,0
3.989,-3.75,0,0,0,0,0
3.99,-3.4375,0,0,0,0,0
3.991,-3.125,0,0,0,0,0
3.992,-3.4375,0,0,0,0,0
3.993,-3.75,0,0,0,0,0
3.994,-4.0625,0,0,0,0,0
3.995,-4.375,0,0,0,0,0
3.996,-4.375,0,0,0,0,0
3.997,-4.375,0,0,0,0,0
3.998,-4.6875,0,0,0,0,0
3.999,-4.375,0,0,0,0,0
4,-4.0625,0,0,0,0,0
4.001,-3.75,0,0,0,0,0
4.002,-4.375,0,0,0,0,0
4.003,-3.75,0,0,0,0,0
4.004,-3.4375,0,0,0,0,0
4.005,-3.125,0,0,0,0,0
4.006,-4.0625,0,0,0,0,0
4.007,-4.375,0,0,0,0,0
4.008,-4.6875,0,0,0,0,0
4.009,-5,0,0,0,0,0
4.01,-4.375,0,0,0,0,0
4.011,-5,0,0,0,0,0
4.012,-5,0,0,0,0,0
4.013,-5,0,0,0,0,0
4.014,-5,0,0,0,0,0
4.015,-4.375,0,0,0,0,0
4.016,-5.3125,0,0,0,0,0
4.017,-5.625,0,0,0,0,0
4.018,-5,0,0,0,0,0
4.019,-5,0,0,0,0,0
4.02,-4.6875,0,0,0,0,0
4.021,-5,0,0,0,0,0
4.022,-4.6875,0,0,0,0,0
4.023,-4.375,0,0,0,0,0
4.024,-4.6875,0,0,0,0,0
4.025,-5,0,0,0,0,0
4.026,-5,0,0,0,0,0
4.027,-4.375,0,0,0,0,0
4.028,-4.0625,0,0,0,0,0
4.029,-3.75,0,0,0,0,0
4.03,-3.75,0,0,0,0,0
4.031,-3.75,0,0,0,0,0
4.032,-3.4375,0,0,0,0,0
4.033,-3.125,0,0,0,0,0
4.034,-2.8125,0,0,0,0,0
4.035,-2.5,0,0,0,0,0
4.036,-3.125,0,0,0,0,0
4.037,-3.75,0,0,0,0,0
4.038,-3.4375,0,0,0,0,0
4.039,-3.75,0,0,0,0,0
4.04,-3.125,0,0,0,0,0
4.041,-3.125,0,0,0,0,0
4.042,-3.4375,0,0,0,0,0
4.043,-3.75,1,0,0,0,0
4.044,-4.375,0,0,0,0,0
4.045,-4.375,0,0,0,0,0
4.046,-3.4375,0,0,0,0,0
4.047,-3.75,0,0,0,0,0
4.048,-2.5,0,0,0,0,0
4.049,-1.25,0,0,0,0,0
4.05,-1.5625,0,0,0,0,0
4.051,-1.25,0,0,0,0,0
4.052,-0.9375,0,0,0,0,0
4.053,-0.625,0,0,0,0,0
4.054,-0.625,0,0,0,0,0
4.055,0,0,0,0,0,0
4.056,0.3125,0,0,0,0,0
4.057,0.625,0,0,0,0,0
4.058,0.625,0,0,0,0,0
4.059,1.25,0,0,0,0,0
4.06,2.1875,0,0,0,0,0
4.061,3.75,0,0,0,0,0
4.062,4.0625,0,0,0,0,0
4.063,4.375,0,0,0,0,0
4.064,4.6875,0,0,0,0,0
4.065,5.625,0,0,0,0,0
4.066,7.1875,0,0,0,0,0
4.067,8.75,0,0,0,0,0
4.068,9.6875,0,0,0,0,0
4.069,11.875,0,0,0,0,0
4.07,13.438,0,0,0,0,0
4.071,15,0,0,0,0,0
4.072,16.25,0,0,0,0,0
4.073,18.75,0,0,0,0,0
4.074,23.75,0,0,0,0,0
4.075,28.125,0,0,0,0,0
4.076,31.875,0,0,0,0,0
4.077,35.625,0,0,0,0,0
4.078,38.75,0,0,0,0,0
4.079,41.25,0,0,0,0,0
4.08,45,0,0,0,0,0
4.081,48.75,0,0,0,0,0
4.082,52.188,0,0,0,0,0
4.083,54.375,0,0,0,0,0
4.084,55.625,0,0,0,0,0
4.085,57.5,0,0,0,0,0
4.086,60.938,0,0,0,0,0
4.087,62.5,0,1,0,0,0
4.088,63.438,0,0,0,0,0
4.089,63.75,0,0,0,0,0
4.09,62.5,0,0,0,0,0
4.091,60.625,0,0,0,0,0
4.092,59.375,0,0,0,0,0
4.093,58.125,0,0,0,0,0
4.094,54.688,0,0,0,0,0
4.095,50,0,0,0,0,0
4.096,43.125,0,0,0,0,0
4.097,36.25,0,0,0,0,0
4.098,26.25,0,0,0,0,0
4.099,13.75,0,0,0,0,0
4.1,2.1875,0,0,0,0,0
4.101,-7.5,0,0,0,0,0
4.102,-16.563,0,0,0,0,0
4.103,-25.625,0,0,0,0,0
4.104,-35.625,0,0,0,0,0
4.105,-46.25,0,0,0,0,0
4.106,-57.5,0,0,0,0,0
4.107,-66.875,0,0,0,0,0
4.108,-71.875,0,0,0,0,0
4.109,-74.375,0,0,0,0,0
4.11,-75.938,0,0,0,0,0
4.111,-75,0,0,0,0,0
4.112,-73.75,0,0,0,0,0
4.113,-71.875,0,0,0,0,0
4.114,-68.438,0,0,0,0,0
4.115,-65.625,0,0,0,0,0
4.116,-63.438,0,0,0,0,0
4.117,-60.625,0,0,0,0,0
4.118,-58.438,0,0,0,0,0
4.119,-54.375,0,0,0,0,0
4.12,-49.688,0,0,0,0,0
4.121,-45,0,0,0,0,0
4.122,-40.938,0,0,0,0,0
4.123,-36.875,0,0,0,0,0
4.124,-34.063,0,0,0,0,0
4.125,-31.25,0,0,0,0,0
4.126,-27.813,0,0,0,0,0
4.127,-25.625,0,0,0,0,0
4.128,-22.813,0,0,0,0,0
4.129,-21.875,0,0,0,0,0
4.13,-20,0,0,0,0,0
4.131,-18.75,0,0,0,0,0
4.132,-17.188,0,0,0,0,0
4.133,-15.625,0,0,0,0,0
4.134,-13.438,0,0,0,0,0
4.135,-11.875,0,0,0,0,0
4.136,-10.625,0,0,0,0,0
4.137,-10,0,0,0,0,0
4.138,-9.0625,0,0,0,0,0
4.139,-8.125,0,0,1,0,0
4.14,-7.1875,0,0,0,0,0
4.141,-6.25,0,0,0,0,0
4.142,-5.625,0,0,0,0,0
4.143,-5.625,0,0,0,0,0
4.144,-5.3125,0,0,0,0,0
4.145,-5,0,0,0,0,0
4.146,-5,0,0,0,0,0
4.147,-5,0,0,0,0,0
4.148,-4.6875,0,0,0,0,0
4.149,-5,0,0,0,0,0
4.15,-4.6875,0,0,0,0,0
4.151,-4.375,0,0,0,0,0
4.152,-3.75,0,0,0,0,0
4.153,-4.375,0,0,0,0,0
4.154,-4.0625,0,0,0,0,0
4.155,-4.375,0,0,0,0,0
4.156,-4.375,0,0,0,0,0
4.157,-4.375,0,0,0,0,0
4.158,-4.0625,0,0,0,0,0
4.159,-3.75,0,0,0,0,0
4.16,-4.0625,0,0,0,0,0
4.161,-3.75,0,0,0,0,0
4.162,-2.8125,0,0,0,0,0
4.163,-2.5,0,0,0,0,0
4.164,-2.8125,0,0,0,0,0
4.165,-2.5,0,0,0,0,0
4.166,-2.1875,0,0,0,0,0
4.167,-1.875,0,0,0,0,0
4.168,-2.1875,0,0,0,0,0
4.169,-1.875,0,0,0,0,0
4.17,-1.5625,0,0,0,0,0
4.171,-1.875,0,0,0,0,0
4.172,-2.1875,0,0,0,0,0
4.173,-2.5,0,0,0,0,0
4.174,-1.25,0,0,0,0,0
4.175,0,0,0,0,0,0
4.176,-0.9375,0,0,0,0,0
4.177,0,0,0,0,0,0
4.178,-0.3125,0,0,0,0,0
4.179,-0.625,0,0,0,0,0
4.18,-0.9375,0,0,0,0,0
4.181,-1.25,0,0,0,0,0
4.182,-1.875,0,0,0,0,0
4.183,-2.5,0,0,0,0,0
4.184,-2.8125,0,0,0,0,0
4.185,-3.125,0,0,0,0,0
4.186,-2.8125,0,0,0,0,0
4.187,-2.5,0,0,0,0,0
4.188,-2.8125,0,0,0,0,0
4.189,-2.5,0,0,0,0,0
4.19,-3.4375,0,0,0,0,0
4.191,-3.125,0,0,0,0,0
4.192,-3.125,0,0,0,0,0
4.193,-3.125,0,0,0,0,0
4.194,-2.8125,0,0,0,0,0
4.195,-3.125,0,0,0,0,0
4.196,-2.5,0,0,0,0,0
4.197,-3.125,0,0,0,0,0
4.198,-3.125,0,0,0,0,0
4.199,-2.5,0,0,0,0,0
4.2,-1.25,0,0,0,0,0
4.201,-1.25,0,0,0,0,0
4.202,-1.25,0,0,0,0,0
4.203,-1.25,0,0,0,0,0
4.204,-0.9375,0,0,0,0,0
4.205,-0.625,0,0,0,0,0
4.206,-0.625,0,0,0,0,0
4.207,-0.625,0,0,0,0,0
4.208,-0.3125,0,0,0,0,0
4.209,-0.625,0,0,0,0,0
4.21,-0.625,0,0,0,0,0
4.211,0,0,0,0,0,0
4.212,-0.625,0,0,0,0,0
4.213,-0.625,0,0,0,0,0
4.214,-0.3125,0,0,0,0,0
4.215,-0.625,0,0,0,0,0
4.216,-0.9375,0,0,0,0,0
4.217,-1.25,0,0,0,0,0
4.218,-0.9375,0,0,0,0,0
4.219,-0.625,0,0,0,0,0
4.22,-0.9375,0,0,0,0,0
4.221,-1.25,0,0,0,0,0
4.222,-0.9375,0,0,0,0,0
4.223,0,0,0,0,0,0
4.224,-0.625,0,0,0,0,0
4.225,-0.625,0,0,0,0,0
4.226,-0.3125,0,0,0,0,0
4.227,-0.625,0,0,0,0,0
4.228,-0.625,0,0,0,0,0
4.229,-0.625,0,0,0,0,0
4.23,-0.625,0,0,0,0,0
4.231,-0.625,0,0,0,0,0
4.232,-0.9375,0,0,0,0,0
4.233,-1.875,0,0,0,0,0
4.234,-1.25,0,0,0,0,0
4.235,-1.25,0,0,0,0,0
4.236,-0.9375,0,0,0,0,0
4.237,-0.625,0,0,0,0,0
4.238,-1.25,0,0,0,0,0
4.239,-0.625,0,0,0,0,0
4.24,-0.3125,0,0,0,0,0
4.241,0,0,0,0,0,0
4.242,-0.3125,0,0,0,0,0
4.243,-0.625,0,0,0,0,0
4.244,0.3125,0,0,0,0,0
4.245,0.625,0,0,0,0,0
4.246,0.625,0,0,0,0,0
4.247,0.625,0,0,0,0,0
4.248,0.3125,0,0,0,0,0
4.249,0.625,0,0,0,0,0
4.25,-0.3125,0,0,0,0,0
4.251,-0.625,0,0,0,0,0
4.252,0.3125,0,0,0,0,0
4.253,0,0,0,0,0,0
4.254,-0.3125,0,0,0,0,0
4.255,-0.625,0,0,0,0,0
4.256,-0.3125,0,0,0,0,0
4.257,-0.625,0,0,0,0,0
4.258,-0.625,0,0,0,0,0
4.259,-0.625,0,0,0,0,0
4.26,0.3125,0,0,0,0,0
4.261,0.625,0,0,0,0,0
4.262,1.25,0,0,0,0,0
4.263,1.25,0,0,0,0,0
4.264,1.25,0,0,0,0,0
4.265,1.25,0,0,0,0,0
4.266,1.25,0,0,0,0,0
4.267,1.25,0,0,0,0,0
4.268,0.9375,0,0,0,0,0
4.269,0.625,0,0,0,0,0
4.27,0.3125,0,0,0,0,0
4.271,0.625,0,0,0,0,0
4.272,0.625,0,0,0,0,0
4.273,0.625,0,0,0,0,0
4.274,0.625,0,0,0,0,0
4.275,0.625,0,0,0,0,0
4.276,1.25,0,0,0,0,0
4.277,1.25,0,0,0,0,0
4.278,0.3125,0,0,0,0,0
4.279,0.625,0,0,0,0,0
4.28,0.9375,0,0,0,0,0
4.281,1.25,0,0,0,0,0
4.282,1.25,0,0,0,0,0
4.283,1.25,0,0,0,0,0
4.284,1.25,0,0,0,0,0
4.285,1.25,0,0,0,0,0
4.286,0.9375,0,0,0,0,0
4.287,1.25,0,0,0,0,0
4.288,0.9375,0,0,0,0,0
4.289,0.625,0,0,0,0,0
4.29,0.9375,0,0,0,0,0
4.291,1.25,0,0,0,0,0
4.292,1.25,0,0,0,0,0
4.293,1.25,0,0,0,0,0
4.294,1.5625,0,0,0,0,0
4.295,2.5,0,0,0,0,0
4.296,2.5,0,0,0,0,0
4.297,2.5,0,0,0,0,0
4.298,2.5,0,0,0,0,0
4.299,2.5,0,0,0,0,0
4.3,3.125,0,0,0,0,0
4.301,3.75,0,0,0,0,0
4.302,3.125,0,0,0,0,0
4.303,3.125,0,0,0,0,0
4.304,2.5,0,0,0,0,0
4.305,2.5,0,0,0,0,0
4.306,2.8125,0,0,0,0,0
4.307,3.125,0,0,0,0,0
4.308,3.4375,0,0,0,0,0
4.309,4.375,0,0,0,0,0
4.31,4.375,0,0,0,0,0
4.311,3.75,0,0,0,0,0
4.312,4.0625,0,0,0,0,0
4.313,3.75,0,0,0,0,0
4.314,3.75,0,0,0,0,0
4.315,3.75,0,0,0,0,0
4.316,4.0625,0,0,0,0,0
4.317,4.375,0,0,0,0,0
4.318,4.375,0,0,0,0,0
4.319,5,0,0,0,0,0
4.32,5,0,0,0,0,0
4.321,6.25,0,0,0,0,0
4.322,5.9375,0,0,0,0,0
4.323,6.25,0,0,0,0,0
4.324,5.9375,0,0,0,0,0
4.325,5.625,0,0,0,0,0
4.326,5.625,0,0,0,0,0
4.327,6.25,0,0,0,0,0
4.328,6.5625,0,0,0,0,0
4.329,6.875,0,0,0,0,0
4.33,6.5625,0,0,0,0,0
4.331,6.25,0,0,0,0,0
4.332,7.1875,0,0,0,0,0
4.333,7.5,0,0,0,0,0
4.334,7.5,0,0,0,0,0
4.335,8.125,0,0,0,0,0
4.336,8.4375,0,0,0,0,0
4.337,8.75,0,0,0,0,0
4.338,8.4375,0,0,0,0,0
4.339,8.75,0,0,0,0,0
4.34,8.125,0,0,0,0,0
4.341,8.75,0,0,0,0,0
4.342,9.0625,0,0,0,0,0
4.343,9.375,0,0,0,0,0
4.344,9.0625,0,0,0,0,0
4.345,9.375,0,0,0,0,0
4.346,9.375,0,0,0,0,0
4.347,9.375,0,0,0,0,0
4.348,9.6875,0,0,0,0,0
4.349,9.375,0,0,0,0,0
4.35,9.6875,0,0,0,0,0
4.351,10,0,0,0,0,0
4.352,10,0,0,0,0,0
4.353,10,0,0,0,0,0
4.354,10.313,0,0,0,0,0
4.355,10,0,0,0,0,0
4.356,10.313,0,0,0,0,0
4.357,10.625,0,0,0,0,0
4.358,10,0,0,0,0,0
4.359,10,0,0,0,0,0
4.36,10,0,0,0,0,0
4.361,10,0,0,0,0,0
4.362,11.25,0,0,0,0,0
4.363,11.875,0,0,0,0,0
4.364,11.25,0,0,0,0,0
4.365,11.875,0,0,0,0,0
4.366,12.5,0,0,0,0,0
4.367,13.125,0,0,0,0,0
4.368,13.438,0,0,0,0,0
4.369,13.75,0,0,0,0,0
4.37,13.438,0,0,0,0,0
4.371,13.125,0,0,0,0,0
4.372,13.75,0,0,0,0,0
4.373,13.75,0,0,0,0,0
4.374,13.125,0,0,0,0,0
4.375,13.125,0,0,0,0,0
4.376,13.75,0,0,0,0,0
4.377,13.75,0,0,0,0,0
4.378,13.75,0,0,0,0,0
4.379,13.75,0,0,0,0,0
4.38,13.125,0,0,0,0,0
4.381,13.125,0,0,0,0,0
4.382,13.438,0,0,0,0,0
4.383,13.75,0,0,0,0,0
4.384,13.75,0,0,0,0,0
4.385,13.75,0,0,0,0,0
4.386,13.75,0,0,0,0,0
4.387,13.75,0,0,0,0,0
4.388,14.375,0,0,0,0,0
4.389,14.375,0,0,0,0,0
4.39,14.688,0,0,0,0,0
4.391,15,0,0,0,0,0
4.392,15,0,0,0,0,0
4.393,15,0,0,0,0,0
4.394,15.625,0,0,0,0,0
4.395,15.625,0,0,0,0,0
4.396,15,0,0,0,1,0
4.397,15,0,0,0,0,0
4.398,14.688,0,0,0,0,0
4.399,14.375,0,0,0,0,0
4.4,14.375,0,0,0,0,0
4.401,14.375,0,0,0,0,0
4.402,14.063,0,0,0,0,0
4.403,14.375,0,0,0,0,0
4.404,13.438,0,0,0,0,0
4.405,13.125,0,0,0,0,0
4.406,13.125,0,0,0,0,0
4.407,13.125,0,0,0,0,0
4.408,13.438,0,0,0,0,0
4.409,13.75,0,0,0,0,0
4.41,13.75,0,0,0,0,0
4.411,13.125,0,0,0,0,0
4.412,13.438,0,0,0,0,0
4.413,13.125,0,0,0,0,0
4.414,13.125,0,0,0,0,0
4.415,13.125,0,0,0,0,0
4.416,13.125,0,0,0,0,0
4.417,12.5,0,0,0,0,0
4.418,12.5,0,0,0,0,0
4.419,12.5,0,0,0,0,0
4.42,12.188,0,0,0,0,0
4.421,11.875,0,0,0,0,0
4.422,11.25,0,0,0,0,0
4.423,10.625,0,0,0,0,0
4.424,10.313,0,0,0,0,0
4.425,10.625,0,0,0,0,0
4.426,10,0,0,0,0,0
4.427,10,0,0,0,0,0
4.428,10.313,0,0,0,0,0
4.429,10.625,0,0,0,0,0
4.43,10,0,0,0,0,0
4.431,10,0,0,0,0,0
4.432,9.375,0,0,0,0,0
4.433,9.375,0,0,0,0,0
4.434,9.375,0,0,0,0,0
4.435,8.75,0,0,0,0,0
4.436,8.4375,0,0,0,0,0
4.437,8.125,0,0,0,0,0
4.438,8.4375,0,0,0,0,0
4.439,8.125,0,0,0,0,0
4.44,8.125,0,0,0,0,0
4.441,8.125,0,0,0,0,0
4.442,7.5,0,0,0,0,0
4.443,7.5,0,0,0,0,0
4.444,6.875,0,0,0,0,0
4.445,6.875,0,0,0,0,0
4.446,6.875,0,0,0,0,0
4.447,6.875,0,0,0,0,0
4.448,6.5625,0,0,0,0,0
4.449,6.25,0,0,0,0,0
4.45,6.25,0,0,0,0,0
4.451,5.625,0,0,0,0,0
4.452,5.3125,0,0,0,0,0
4.453,5,0,0,0,0,0
4.454,5,0,0,0,0,0
4.455,5,0,0,0,0,0
4.456,5.3125,0,0,0,0,0
4.457,5,0,0,0,0,0
4.458,3.75,0,0,0,0,0
4.459,3.125,0,0,0,0,0
4.46,3.4375,0,0,0,0,0
4.461,3.75,0,0,0,0,0
4.462,4.0625,0,0,0,0,0
4.463,3.75,0,0,0,0,0
4.464,3.125,0,0,0,0,0
4.465,2.5,0,0,0,0,0
4.466,1.875,0,0,0,0,0
4.467,1.875,0,0,0,0,0
4.468,1.875,0,0,0,0,0
4.469,1.875,0,0,0,0,0
4.47,1.875,0,0,0,0,0
4.471,1.875,0,0,0,0,0
4.472,2.5,0,0,0,0,0
4.473,2.5,0,0,0,0,0
4.474,1.875,0,0,0,0,0
4.475,1.875,0,0,0,0,0
4.476,2.1875,0,0,0,0,0
4.477,1.25,0,0,0,0,0
4.478,0.625,0,0,0,0,0
4.479,1.25,0,0,0,0,0
4.48,0.9375,0,0,0,0,0
4.481,1.25,0,0,0,0,0
4.482,0.9375,0,0,0,0,0
4.483,0.625,0,0,0,0,0
4.484,0.625,0,0,0,0,0
4.485,0.625,0,0,0,0,0
4.486,0.625,0,0,0,0,0
4.487,0.625,0,0,0,0,0
4.488,0.3125,0,0,0,0,0
4.489,0,0,0,0,0,0
4.49,-0.625,0,0,0,0,0
4.491,-0.625,0,0,0,0,0
4.492,-1.25,0,0,0,0,0
4.493,-1.25,0,0,0,0,0
4.494,-1.5625,0,0,0,0,0
4.495,-1.875,0,0,0,0,0
4.496,-1.5625,0,0,0,0,0
4.497,-1.25,0,0,0,0,0
4.498,-1.5625,0,0,0,0,0
4.499,-1.875,0,0,0,0,0
4.5,-1.875,0,0,0,0,0
4.501,-1.875,0,0,0,0,0
4.502,-1.875,0,0,0,0,0
4.503,-1.875,0,0,0,0,0
4.504,-2.5,0,0,0,0,0
4.505,-2.5,0,0,0,0,0
4.506,-2.1875,0,0,0,0,0
4.507,-1.875,0,0,0,0,0
4.508,-1.875,0,0,0,0,1
4.509,-1.875,0,0,0,0,0
4.51,-1.5625,0,0,0,0,0
4.511,-1.25,0,0,0,0,0
4.512,-1.25,0,0,0,0,0
4.513,-1.875,0,0,0,0,0
4.514,-1.5625,0,0,0,0,0
4.515,-1.25,0,0,0,0,0
4.516,-1.875,0,0,0,0,0
4.517,-2.5,0,0,0,0,0
4.518,-3.125,0,0,0,0,0
4.519,-2.5,0,0,0,0,0
4.52,-2.1875,0,0,0,0,0
4.521,-1.25,0,0,0,0,0
4.522,-1.25,0,0,0,0,0
4.523,-1.25,0,0,0,0,0
4.524,-1.5625,0,0,0,0,0
4.525,-2.5,0,0,0,0,0
4.526,-2.5,0,0,0,0,0
4.527,-2.5,0,0,0,0,0
4.528,-2.8125,0,0,0,0,0
4.529,-2.5,0,0,0,0,0
4.53,-3.125,0,0,0,0,0
4.531,-3.125,0,0,0,0,0
4.532,-2.8125,0,0,0,0,0
4.533,-2.5,0,0,0,0,0
4.534,-2.8125,0,0,0,0,0
4.535,-3.125,0,0,0,0,0
4.536,-3.125,0,0,0,0,0
4.537,-3.125,0,0,0,0,0
4.538,-3.75,0,0,0,0,0
4.539,-3.125,0,0,0,0,0
4.54,-3.125,0,0,0,0,0
4.541,-3.125,0,0,0,0,0
4.542,-3.4375,0,0,0,0,0
4.543,-2.5,0,0,0,0,0
4.544,-3.125,0,0,0,0,0
4.545,-3.125,0,0,0,0,0
4.546,-3.125,0,0,0,0,0
4.547,-3.125,0,0,0,0,0
4.548,-3.125,0,0,0,0,0
4.549,-3.75,0,0,0,0,0
4.55,-3.4375,0,0,0,0,0
4.551,-3.75,0,0,0,0,0
4.552,-3.125,0,0,0,0,0
4.553,-3.75,0,0,0,0,0
4.554,-3.125,0,0,0,0,0
4.555,-3.125,0,0,0,0,0
4.556,-3.125,0,0,0,0,0
4.557,-3.125,0,0,0,0,0
4.558,-3.75,0,0,0,0,0
4.559,-3.75,0,0,0,0,0
4.56,-3.4375,0,0,0,0,0
4.561,-3.125,0,0,0,0,0
4.562,-2.8125,0,0,0,0,0
4.563,-2.5,0,0,0,0,0
4.564,-2.8125,0,0,0,0,0
4.565,-2.5,0,0,0,0,0
4.566,-2.8125,0,0,0,0,0
4.567,-2.5,0,0,0,0,0
4.568,-2.5,0,0,0,0,0
4.569,-2.5,0,0,0,0,0
4.57,-2.1875,0,0,0,0,0
4.571,-1.875,0,0,0,0,0
4.572,-2.1875,0,0,0,0,0
4.573,-2.5,0,0,0,0,0
4.574,-3.125,0,0,0,0,0
4.575,-3.75,0,0,0,0,0
4.576,-2.5,0,0,0,0,0
4.577,-1.875,0,0,0,0,0
4.578,-2.1875,0,0,0,0,0
4.579,-1.875,0,0,0,0,0
4.58,-1.5625,0,0,0,0,0
4.581,-1.25,0,0,0,0,0
4.582,-1.875,0,0,0,0,0
4.583,-2.5,0,0,0,0,0
4.584,-2.5,0,0,0,0,0
4.585,-1.875,0,0,0,0,0
4.586,-2.1875,0,0,0,0,0
4.587,-1.875,0,0,0,0,0
4.588,-2.1875,0,0,0,0,0
4.589,-2.5,0,0,0,0,0
4.59,-2.5,0,0,0,0,0
4.591,-2.5,0,0,0,0,0
4.592,-2.8125,0,0,0,0,0
4.593,-3.125,0,0,0,0,0
4.594,-2.8125,0,0,0,0,0
4.595,-3.125,0,0,0,0,0
4.596,-2.8125,0,0,0,0,0
4.597,-3.125,0,0,0,0,0
4.598,-3.125,0,0,0,0,0
4.599,-3.125,0,0,0,0,0
4.6,-3.125,0,0,0,0,0
4.601,-3.125,0,0,0,0,0
4.602,-3.125,0,0,0,0,0
4.603,-3.125,0,0,0,0,0
4.604,-2.8125,0,0,0,0,0
4.605,-3.125,0,0,0,0,0
4.606,-2.5,0,0,0,0,0
4.607,-2.5,0,0,0,0,0
4.608,-2.8125,0,0,0,0,0
4.609,-2.5,0,0,0,0,0
4.61,-2.8125,0,0,0,0,0
4.611,-3.125,0,0,0,0,0
4.612,-3.125,0,0,0,0,0
4.613,-3.125,0,0,0,0,0
4.614,-2.1875,0,0,0,0,0
4.615,-1.875,0,0,0,0,0
4.616,-2.5,0,0,0,0,0
4.617,-1.875,0,0,0,0,0
4.618,-2.8125,0,0,0,0,0
4.619,-2.5,0,0,0,0,0
4.62,-2.8125,0,0,0,0,0
4.621,-3.125,0,0,0,0,0
4.622,-3.125,0,0,0,0,0
4.623,-3.125,0,0,0,0,0
4.624,-3.4375,0,0,0,0,0
4.625,-3.75,0,0,0,0,0
4.626,-4.375,0,0,0,0,0
4.627,-4.375,0,0,0,0,0
4.628,-4.0625,0,0,0,0,0
4.629,-3.75,0,0,0,0,0
4.63,-3.4375,0,0,0,0,0
4.631,-3.125,0,0,0,0,0
4.632,-3.125,0,0,0,0,0
4.633,-3.75,0,0,0,0,0
4.634,-3.4375,0,0,0,0,0
4.635,-3.75,0,0,0,0,0
4.636,-3.75,0,0,0,0,0
4.637,-3.75,0,0,0,0,0
4.638,-3.4375,0,0,0,0,0
4.639,-2.5,0,0,0,0,0
4.64,-2.1875,0,0,0,0,0
4.641,-2.5,0,0,0,0,0
4.642,-2.5,0,0,0,0,0
4.643,-2.5,0,0,0,0,0
4.644,-2.5,0,0,0,0,0
4.645,-2.5,0,0,0,0,0
4.646,-2.5,0,0,0,0,0
4.647,-2.5,0,0,0,0,0
4.648,-2.8125,0,0,0,0,0
4.649,-3.125,0,0,0,0,0
4.65,-3.4375,0,0,0,0,0
4.651,-4.375,0,0,0,0,0
4.652,-3.4375,0,0,0,0,0
4.653,-3.125,0,0,0,0,0
4.654,-3.75,0,0,0,0,0
4.655,-3.75,0,0,0,0,0
4.656,-4.0625,0,0,0,0,0
4.657,-4.375,0,0,0,0,0
4.658,-4.375,0,0,0,0,0
4.659,-4.375,0,0,0,0,0
4.66,-4.375,0,0,0,0,0
4.661,-4.375,0,0,0,0,0
4.662,-4.375,0,0,0,0,0
4.663,-4.375,0,0,0,0,0
4.664,-4.375,0,0,0,0,0
4.665,-4.375,0,0,0,0,0
4.666,-4.0625,0,0,0,0,0
4.667,-3.125,0,0,0,0,0
4.668,-2.8125,0,0,0,0,0
4.669,-2.5,0,0,0,0,0
4.67,-2.8125,0,0,0,0,0
4.671,-2.5,0,0,0,0,0
4.672,-2.8125,0,0,0,0,0
4.673,-3.125,0,0,0,0,0
4.674,-2.8125,0,0,0,0,0
4.675,-2.5,0,0,0,0,0
4.676,-2.8125,0,0,0,0,0
4.677,-3.125,0,0,0,0,0
4.678,-3.4375,0,0,0,0,0
4.679,-3.75,0,0,0,0,0
4.68,-3.4375,0,0,0,0,0
4.681,-3.125,0,0,0,0,0
4.682,-3.125,0,0,0,0,0
4.683,-3.125,0,0,0,0,0
4.684,-3.125,0,0,0,0,0
4.685,-3.125,0,0,0,0,0
4.686,-2.8125,0,0,0,0,0
4.687,-2.5,0,0,0,0,0
4.688,-2.5,0,0,0,0,0
4.689,-2.5,0,0,0,0,0
4.69,-2.8125,0,0,0,0,0
4.691,-3.125,0,0,0,0,0
4.692,-2.8125,0,0,0,0,0
4.693,-2.5,0,0,0,0,0
4.694,-2.5,0,0,0,0,0
4.695,-2.5,0,0,0,0,0
4.696,-2.8125,0,0,0,0,0
4.697,-3.125,0,0,0,0,0
4.698,-2.8125,0,0,0,0,0
4.699,-3.125,0,0,0,0,0
4.7,-3.4375,0,0,0,0,0
4.701,-3.75,0,0,0,0,0
4.702,-3.75,0,0,0,0,0
4.703,-3.75,0,0,0,0,0
4.704,-3.75,0,0,0,0,0
4.705,-3.75,0,0,0,0,0
4.706,-3.4375,0,0,0,0,0
4.707,-3.125,0,0,0,0,0
4.708,-3.125,0,0,0,0,0
4.709,-3.125,0,0,0,0,0
4.71,-3.125,0,0,0,0,0
4.711,-3.125,0,0,0,0,0
4.712,-3.4375,0,0,0,0,0
4.713,-3.75,0,0,0,0,0
4.714,-3.75,0,0,0,0,0
4.715,-3.75,0,0,0,0,0
4.716,-3.125,0,0,0,0,0
4.717,-3.75,0,0,0,0,0
4.718,-3.75,0,0,0,0,0
4.719,-3.75,0,0,0,0,0
4.72,-3.75,0,0,0,0,0
4.721,-3.75,0,0,0,0,0
4.722,-3.75,0,0,0,0,0
4.723,-3.75,0,0,0,0,0
4.724,-3.4375,0,0,0,0,0
4.725,-3.125,0,0,0,0,0
4.726,-3.75,0,0,0,0,0
4.727,-3.75,0,0,0,0,0
4.728,-3.75,0,0,0,0,0
4.729,-3.75,0,0,0,0,0
4.73,-3.125,0,0,0,0,0
4.731,-3.125,0,0,0,0,0
4.732,-2.8125,0,0,0,0,0
4.733,-2.5,0,0,0,0,0
4.734,-2.8125,0,0,0,0,0
4.735,-3.125,0,0,0,0,0
4.736,-3.4375,0,0,0,0,0
4.737,-3.75,0,0,0,0,0
4.738,-2.8125,0,0,0,0,0
4.739,-3.125,0,0,0,0,0
4.74,-3.4375,0,0,0,0,0
4.741,-3.75,0,0,0,0,0
4.742,-3.4375,0,0,0,0,0
4.743,-3.125,0,0,0,0,0
4.744,-3.4375,0,0,0,0,0
4.745,-3.75,0,0,0,0,0
4.746,-3.75,0,0,0,0,0
4.747,-3.75,0,0,0,0,0
4.748,-3.75,0,0,0,0,0
4.749,-3.75,0,0,0,0,0
4.75,-3.4375,0,0,0,0,0
4.751,-3.125,0,0,0,0,0
4.752,-3.125,0,0,0,0,0
4.753,-2.5,0,0,0,0,0
4.754,-2.8125,0,0,0,0,0
4.755,-2.5,0,0,0,0,0
4.756,-2.5,0,0,0,0,0
4.757,-2.5,0,0,0,0,0
4.758,-1.875,0,0,0,0,0
4.759,-1.875,0,0,0,0,0
4.76,-1.5625,0,0,0,0,0
4.761,-1.875,0,0,0,0,0
4.762,-1.875,0,0,0,0,0
4.763,-1.875,0,0,0,0,0
4.764,-2.5,0,0,0,0,0
4.765,-2.5,0,0,0,0,0
4.766,-2.1875,0,0,0,0,0
4.767,-2.5,0,0,0,0,0
4.768,-2.8125,0,0,0,0,0
4.769,-3.125,0,0,0,0,0
4.77,-3.125,0,0,0,0,0
4.771,-3.125,0,0,0,0,0
4.772,-2.5,0,0,0,0,0
4.773,-3.125,0,0,0,0,0
4.774,-3.4375,0,0,0,0,0
4.775,-3.75,0,0,0,0,0
4.776,-3.4375,0,0,0,0,0
4.777,-3.75,0,0,0,0,0
4.778,-3.75,0,0,0,0,0
4.779,-3.75,0,0,0,0,0
4.78,-3.4375,0,0,0,0,0
4.781,-3.125,0,0,0,0,0
4.782,-3.4375,0,0,0,0,0
4.783,-3.75,0,0,0,0,0
4.784,-3.125,0,0,0,0,0
4.785,-3.75,0,0,0,0,0
4.786,-3.75,0,0,0,0,0
4.787,-3.75,0,0,0,0,0
4.788,-4.0625,0,0,0,0,0
4.789,-3.75,0,0,0,0,0
4.79,-3.4375,0,0,0,0,0
4.791,-3.125,0,0,0,0,0
4.792,-3.4375,0,0,0,0,0
4.793,-3.125,0,0,0,0,0
4.794,-2.8125,0,0,0,0,0
4.795,-3.125,0,0,0,0,0
4.796,-3.125,0,0,0,0,0
4.797,-3.125,0,0,0,0,0
4.798,-3.125,0,0,0,0,0
4.799,-3.75,0,0,0,0,0
4.8,-2.8125,0,0,0,0,0
4.801,-2.5,0,0,0,0,0
4.802,-2.1875,0,0,0,0,0
4.803,-1.875,0,0,0,0,0
4.804,-2.1875,0,0,0,0,0
4.805,-1.875,0,0,0,0,0
4.806,-1.875,0,0,0,0,0
4.807,-1.875,0,0,0,0,0
4.808,-1.5625,0,0,0,0,0
4.809,-1.25,0,0,0,0,0
4.81,-1.5625,0,0,0,0,0
4.811,-1.875,0,0,0,0,0
4.812,-1.875,0,0,0,0,0
4.813,-1.875,0,0,0,0,0
4.814,-2.8125,0,0,0,0,0
4.815,-3.125,0,0,0,0,0
4.816,-2.5,0,0,0,0,0
4.817,-2.5,0,0,0,0,0
4.818,-2.5,0,0,0,0,0
4.819,-3.125,0,0,0,0,0
4.82,-3.125,0,0,0,0,0
4.821,-3.125,0,0,0,0,0
4.822,-2.8125,0,0,0,0,0
4.823,-2.5,0,0,0,0,0
4.824,-2.5,0,0,0,0,0
4.825,-2.5,0,0,0,0,0
4.826,-2.5,0,0,0,0,0
4.827,-2.5,0,0,0,0,0
4.828,-2.5,0,0,0,0,0
4.829,-2.5,0,0,0,0,0
4.83,-3.125,0,0,0,0,0
4.831,-2.5,0,0,0,0,0
4.832,-2.1875,0,0,0,0,0
4.833,-2.5,0,0,0,0,0
4.834,-2.5,0,0,0,0,0
4.835,-2.5,0,0,0,0,0
4.836,-2.8125,0,0,0,0,0
4.837,-3.125,0,0,0,0,0
4.838,-3.125,0,0,0,0,0
4.839,-3.125,0,0,0,0,0
4.84,-3.125,0,0,0,0,0
4.841,-3.125,0,0,0,0,0
4.842,-3.4375,0,0,0,0,0
4.843,-3.75,0,0,0,0,0
4.844,-3.75,0,0,0,0,0
4.845,-3.75,0,0,0,0,0
4.846,-4.375,0,0,0,0,0
4.847,-3.75,0,0,0,0,0
4.848,-3.4375,0,0,0,0,0
4.849,-3.125,0,0,0,0,0
4.85,-3.4375,0,0,0,0,0
4.851,-3.75,0,0,0,0,0
4.852,-3.4375,0,0,0,0,0
4.853,-3.125,0,0,0,0,0
4.854,-2.5,0,0,0,0,0
4.855,-2.5,0,0,0,0,0
4.856,-2.5,0,0,0,0,0
4.857,-2.5,0,0,0,0,0
4.858,-3.125,0,0,0,0,0
4.859,-3.125,0,0,0,0,0
4.86,-2.8125,0,0,0,0,0
4.861,-2.5,0,0,0,0,0
4.862,-1.875,0,0,0,0,0
4.863,-1.25,0,0,0,0,0
4.864,-1.5625,0,0,0,0,0
4.865,-1.875,0,0,0,0,0
4.866,-1.875,0,0,0,0,0
4.867,-1.875,0,0,0,0,0
4.868,-2.1875,0,0,0,0,0
4.869,-2.5,0,0,0,0,0
4.87,-2.5,0,0,0,0,0
4.871,-2.5,0,0,0,0,0
4.872,-2.5,0,0,0,0,0
4.873,-2.5,0,0,0,0,0
4.874,-2.1875,0,0,0,0,0
4.875,-1.875,0,0,0,0,0
4.876,-1.875,0,0,0,0,0
4.877,-1.875,0,0,0,0,0
4.878,-2.5,0,0,0,0,0
4.879,-2.5,0,0,0,0,0
4.88,-2.1875,0,0,0,0,0
4.881,-2.5,0,0,0,0,0
4.882,-2.5,0,0,0,0,0
4.883,-2.5,0,0,0,0,0
4.884,-2.1875,0,0,0,0,0
4.885,-2.5,0,0,0,0,0
4.886,-2.1875,0,0,0,0,0
4.887,-2.5,0,0,0,0,0
4.888,-1.875,0,0,0,0,0
4.889,-1.875,0,0,0,0,0
4.89,-2.8125,0,0,0,0,0
4.891,-3.125,0,0,0,0,0
4.892,-2.1875,0,0,0,0,0
4.893,-2.5,0,0,0,0,0
4.894,-1.875,0,0,0,0,0
4.895,-1.875,0,0,0,0,0
4.896,-1.5625,0,0,0,0,0
4.897,-1.875,0,0,0,0,0
4.898,-1.875,0,0,0,0,0
4.899,-1.875,0,0,0,0,0
4.9,-2.1875,0,0,0,0,0
4.901,-1.875,0,0,0,0,0
4.902,-1.875,0,0,0,0,0
4.903,-1.25,0,0,0,0,0
4.904,-1.25,0,0,0,0,0
4.905,-1.25,0,0,0,0,0
4.906,-0.9375,0,0,0,0,0
4.907,-0.625,0,0,0,0,0
4.908,-0.625,0,0,0,0,0
4.909,-0.625,0,0,0,0,0
4.91,-0.9375,0,0,0,0,0
4.911,-0.625,0,0,0,0,0
4.912,-1.25,0,0,0,0,0
4.913,-1.25,0,0,0,0,0
4.914,-1.5625,0,0,0,0,0
4.915,-1.25,0,0,0,0,0
4.916,-0.3125,0,0,0,0,0
4.917,-0.625,0,0,0,0,0
4.918,-0.9375,0,0,0,0,0
4.919,-1.25,0,0,0,0,0
4.92,-0.625,0,0,0,0,0
4.921,-0.625,0,0,0,0,0
4.922,-0.3125,0,0,0,0,0
4.923,0,0,0,0,0,0
4.924,0.3125,0,0,0,0,0
4.925,0.625,0,0,0,0,0
4.926,0.625,0,0,0,0,0
4.927,0.625,0,0,0,0,0
4.928,0.625,0,0,0,0,0
4.929,0.625,0,0,0,0,0
4.93,0.9375,0,0,0,0,0
4.931,1.25,0,0,0,0,0
4.932,0.9375,0,0,0,0,0
4.933,0.625,0,0,0,0,0
4.934,0.3125,0,0,0,0,0
4.935,0,0,0,0,0,0
4.936,0.3125,0,0,0,0,0
4.937,0.625,0,0,0,0,0
4.938,0,0,0,0,0,0
4.939,0,0,0,0,0,0
4.94,0.3125,0,0,0,0,0
4.941,0.625,0,0,0,0,0
4.942,0.9375,0,0,0,0,0
4.943,1.25,0,0,0,0,0
4.944,1.25,0,0,0,0,0
4.945,1.25,0,0,0,0,0
4.946,0.625,0,0,0,0,0
4.947,0.625,0,0,0,0,0
4.948,1.5625,0,0,0,0,0
4.949,1.875,0,0,0,0,0
4.95,1.5625,0,0,0,0,0
4.951,1.875,0,0,0,0,0
4.952,1.875,0,0,0,0,0
4.953,1.875,0,0,0,0,0
4.954,1.25,0,0,0,0,0
4.955,1.25,0,0,0,0,0
4.956,1.875,0,0,0,0,0
4.957,1.875,0,0,0,0,0
4.958,2.1875,0,0,0,0,0
4.959,1.875,0,0,0,0,0
4.96,1.5625,0,0,0,0,0
4.961,1.25,0,0,0,0,0
4.962,1.5625,0,0,0,0,0
4.963,1.25,0,0,0,0,0
4.964,1.5625,0,0,0,0,0
4.965,1.25,0,0,0,0,0
4.966,0.9375,0,0,0,0,0
4.967,1.25,0,0,0,0,0
4.968,1.25,0,0,0,0,0
4.969,0.625,0,0,0,0,0
4.97,-0.3125,0,0,0,0,0
4.971,-0.625,0,0,0,0,0
4.972,-1.875,0,0,0,0,0
4.973,-2.5,0,0,0,0,0
4.974,-1.875,0,0,0,0,0
4.975,-1.875,0,0,0,0,0
4.976,-1.25,0,0,0,0,0
4.977,-1.25,0,0,0,0,0
4.978,-0.9375,0,0,0,0,0
4.979,-0.625,0,0,0,0,0
4.98,-1.25,0,0,0,0,0
4.981,-1.25,0,0,0,0,0
4.982,-1.5625,0,0,0,0,0
4.983,-1.875,0,0,0,0,0
4.984,-2.8125,0,0,0,0,0
4.985,-3.125,0,0,0,0,0
4.986,-3.4375,0,0,0,0,0
4.987,-3.125,0,0,0,0,0
4.988,-3.4375,0,0,0,0,0
4.989,-3.125,0,0,0,0,0
4.99,-2.8125,0,0,0,0,0
4.991,-1.875,0,0,0,0,0
4.992,-1.875,0,0,0,0,0
4.993,-1.875,0,0,0,0,0
4.994,-1.875,0,0,0,0,0
4.995,-1.875,0,0,0,0,0
4.996,-1.875,0,0,0,0,0
4.997,-1.875,0,0,0,0,0
4.998,-2.5,0,0,0,0,0
4.999,-1.875,0,0,0,0,0
5,-0.9375,0,0,0,0,0
5.001,-1.25,0,0,0,0,0
5.002,-1.5625,0,0,0,0,0
5.003,-1.25,0,0,0,0,0
5.004,-1.5625,0,0,0,0,0
5.005,-1.25,0,0,0,0,0
5.006,-1.25,0,0,0,0,0
5.007,-1.25,0,0,0,0,0
5.008,-1.875,0,0,0,0,0
5.009,-1.875,0,0,0,0,0
5.01,-1.875,0,0,0,0,0
5.011,-1.875,0,0,0,0,0
5.012,-2.1875,0,0,0,0,0
5.013,-1.875,0,0,0,0,0
5.014,-1.875,0,0,0,0,0
5.015,-1.875,0,0,0,0,0
5.016,-2.1875,0,0,0,0,0
5.017,-2.5,0,0,0,0,0
5.018,-2.1875,0,0,0,0,0
5.019,-1.875,0,0,0,0,0
5.02,-1.875,0,0,0,0,0
5.021,-1.875,0,0,0,0,0
5.022,-1.875,0,0,0,0,0
5.023,-2.5,0,0,0,0,0
5.024,-2.8125,0,0,0,0,0
5.025,-3.125,0,0,0,0,0
5.026,-3.75,0,0,0,0,0
5.027,-3.75,0,0,0,0,0
5.028,-3.75,0,0,0,0,0
5.029,-3.75,0,0,0,0,0
5.03,-3.75,0,0,0,0,0
5.031,-3.75,0,0,0,0,0
5.032,-4.0625,0,0,0,0,0
5.033,-4.375,0,0,0,0,0
5.034,-3.125,0,0,0,0,0
5.035,-1.875,0,0,0,0,0
5.036,-2.5,0,0,0,0,0
5.037,-3.125,0,0,0,0,0
5.038,-3.125,0,0,0,0,0
5.039,-3.125,0,0,0,0,0
5.04,-3.125,0,0,0,0,0
5.041,-3.125,0,0,0,0,0
5.042,-3.125,0,0,0,0,0
5.043,-3.125,0,0,0,0,0
5.044,-3.4375,0,0,0,0,0
5.045,-3.75,0,0,0,0,0
5.046,-3.75,0,0,0,0,0
5.047,-3.125,0,0,0,0,0
5.048,-2.8125,0,0,0,0,0
5.049,-2.5,0,0,0,0,0
5.05,-3.4375,0,0,0,0,0
5.051,-3.125,0,0,0,0,0
5.052,-3.125,0,0,0,0,0
5.053,-3.125,0,0,0,0,0
5.054,-3.4375,0,0,0,0,0
5.055,-3.125,0,0,0,0,0
5.056,-3.4375,0,0,0,0,0
5.057,-3.75,0,0,0,0,0
5.058,-3.125,0,0,0,0,0
5.059,-3.75,0,0,0,0,0
5.06,-3.75,0,0,0,0,0
5.061,-3.75,0,0,0,0,0
5.062,-3.75,0,0,0,0,0
5.063,-3.125,0,0,0,0,0
5.064,-3.75,0,0,0,0,0
5.065,-3.75,0,0,0,0,0
5.066,-3.125,0,0,0,0,0
5.067,-3.125,0,0,0,0,0
5.068,-2.8125,0,0,0,0,0
5.069,-3.125,0,0,0,0,0
5.07,-2.8125,0,0,0,0,0
5.071,-2.5,0,0,0,0,0
5.072,-2.8125,0,0,0,0,0
5.073,-3.125,0,0,0,0,0
5.074,-3.4375,0,0,0,0,0
5.075,-3.125,0,0,0,0,0
5.076,-3.125,0,0,0,0,0
5.077,-3.125,0,0,0,0,0
5.078,-2.8125,0,0,0,0,0
5.079,-2.5,0,0,0,0,0
5.08,-2.1875,1,0,0,0,0
5.081,-1.875,0,0,0,0,0
5.082,-2.1875,0,0,0,0,0
5.083,-2.5,0,0,0,0,0
5.084,-2.5,0,0,0,0,0
5.085,-2.5,0,0,0,0,0
5.086,-2.1875,0,0,0,0,0
5.087,-2.5,0,0,0,0,0
5.088,-1.5625,0,0,0,0,0
5.089,-1.25,0,0,0,0,0
5.09,-1.25,0,0,0,0,0
5.091,-1.25,0,0,0,0,0
5.092,-1.25,0,0,0,0,0
5.093,-0.625,0,0,0,0,0
5.094,0.3125,0,0,0,0,0
5.095,0,0,0,0,0,0
5.096,0,0,0,0,0,0
5.097,0,0,0,0,0,0
5.098,-0.3125,0,0,0,0,0
5.099,0,0,0,0,0,0
5.1,1.25,0,0,0,0,0
5.101,2.5,0,0,0,0,0
5.102,1.875,0,0,0,0,0
5.103,1.875,0,0,0,0,0
5.104,2.5,0,0,0,0,0
5.105,3.125,0,0,0,0,0
5.106,3.4375,0,0,0,0,0
5.107,4.375,0,0,0,0,0
5.108,4.6875,0,0,0,0,0
5.109,5.625,0,0,0,0,0
5.11,6.25,0,0,0,0,0
5.111,6.875,0,0,0,0,0
5.112,7.8125,0,0,0,0,0
5.113,9.375,0,0,0,0,0
5.114,11.25,0,0,0,0,0
5.115,13.125,0,0,0,0,0
5.116,14.063,0,0,0,0,0
5.117,16.25,0,0,0,0,0
5.118,17.813,0,0,0,0,0
5.119,19.375,0,0,0,0,0
5.12,21.563,0,0,0,0,0
5.121,25,0,0,0,0,0
5.122,29.688,0,0,0,0,0
5.123,33.75,0,0,0,0,0
5.124,37.188,0,0,0,0,0
5.125,40.625,0,0,0,0,0
5.126,44.688,0,0,0,0,0
5.127,48.125,0,0,0,0,0
5.128,51.563,0,0,0,0,0
5.129,55,0,0,0,0,0
5.13,59.063,0,0,0,0,0
5.131,61.875,0,0,0,0,0
5.132,64.063,0,0,0,0,0
5.133,66.875,0,0,0,0,0
5.134,70,0,0,0,0,0
5.135,71.25,0,1,0,0,0
5.136,71.563,0,0,0,0,0
5.137,71.25,0,0,0,0,0
5.138,70,0,0,0,0,0
5.139,68.125,0,0,0,0,0
5.14,65.938,0,0,0,0,0
5.141,63.75,0,0,0,0,0
5.142,59.375,0,0,0,0,0
5.143,53.75,0,0,0,0,0
5.144,46.563,0,0,0,0,0
5.145,39.375,0,0,0,0,0
5.146,29.688,0,0,0,0,0
5.147,17.5,0,0,0,0,0
5.148,5.9375,0,0,0,0,0
5.149,-3.75,0,0,0,0,0
5.15,-13.125,0,0,0,0,0
5.151,-22.5,0,0,0,0,0
5.152,-32.813,0,0,0,0,0
5.153,-43.75,0,0,0,0,0
5.154,-53.75,0,0,0,0,0
5.155,-61.875,0,0,0,0,0
5.156,-66.563,0,0,0,0,0
5.157,-68.75,0,0,0,0,0
5.158,-70.313,0,0,0,0,0
5.159,-69.375,0,0,0,0,0
5.16,-68.125,0,0,0,0,0
5.161,-66.25,0,0,0,0,0
5.162,-63.125,0,0,0,0,0
5.163,-60.625,0,0,0,0,0
5.164,-58.438,0,0,0,0,0
5.165,-55.625,0,0,0,0,0
5.166,-53.125,0,0,0,0,0
5.167,-48.75,0,0,0,0,0
5.168,-45,0,0,0,0,0
5.169,-41.25,0,0,0,0,0
5.17,-38.125,0,0,0,0,0
5.171,-35,0,0,0,0,0
5.172,-32.188,0,0,0,0,0
5.173,-29.375,0,0,0,0,0
5.174,-25.313,0,0,0,0,0
5.175,-22.5,0,0,0,0,0
5.176,-19.375,0,0,0,0,0
5.177,-18.125,0,0,0,0,0
5.178,-16.25,0,0,0,0,0
5.179,-15,0,0,0,0,0
5.18,-12.813,0,0,0,0,0
5.181,-10.625,0,0,0,0,0
5.182,-9.0625,0,0,0,0,0
5.183,-8.125,0,0,0,0,0
5.184,-7.5,0,0,0,0,0
5.185,-7.5,0,0,0,0,0
5.186,-5.9375,0,0,0,0,0
5.187,-4.375,0,0,0,0,0
5.188,-3.75,0,0,0,0,0
5.189,-3.125,0,0,1,0,0
5.19,-2.5,0,0,0,0,0
5.191,-2.5,0,0,0,0,0
5.192,-2.1875,0,0,0,0,0
5.193,-1.875,0,0,0,0,0
5.194,-2.5,0,0,0,0,0
5.195,-3.125,0,0,0,0,0
5.196,-2.5,0,0,0,0,0
5.197,-2.5,0,0,0,0,0
5.198,-2.5,0,0,0,0,0
5.199,-2.5,0,0,0,0,0
5.2,-1.875,0,0,0,0,0
5.201,-2.5,0,0,0,0,0
5.202,-2.1875,0,0,0,0,0
5.203,-2.5,0,0,0,0,0
5.204,-2.5,0,0,0,0,0
5.205,-2.5,0,0,0,0,0
5.206,-2.5,0,0,0,0,0
5.207,-2.5,0,0,0,0,0
5.208,-2.8125,0,0,0,0,0
5.209,-2.5,0,0,0,0,0
5.21,-1.5625,0,0,0,0,0
5.211,-1.25,0,0,0,0,0
5.212,-1.25,0,0,0,0,0
5.213,-0.625,0,0,0,0,0
5.214,-0.9375,0,0,0,0,0
5.215,-1.25,0,0,0,0,0
5.216,-1.875,0,0,0,0,0
5.217,-1.875,0,0,0,0,0
5.218,-1.25,0,0,0,0,0
5.219,-1.25,0,0,0,0,0
5.22,-0.625,0,0,0,0,0
5.221,0,0,0,0,0,0
5.222,0.625,0,0,0,0,0
5.223,1.25,0,0,0,0,0
5.224,-0.625,0,0,0,0,0
5.225,-0.625,0,0,0,0,0
5.226,-0.625,0,0,0,0,0
5.227,-0.625,0,0,0,0,0
5.228,-0.625,0,0,0,0,0
5.229,-0.625,0,0,0,0,0
5.23,-0.625,0,0,0,0,0
5.231,-0.625,0,0,0,0,0
5.232,-0.625,0,0,0,0,0
5.233,-0.625,0,0,0,0,0
5.234,-0.3125,0,0,0,0,0
5.235,0,0,0,0,0,0
5.236,-0.3125,0,0,0,0,0
5.237,0,0,0,0,0,0
5.238,-0.3125,0,0,0,0,0
5.239,0.625,0,0,0,0,0
5.24,0.625,0,0,0,0,0
5.241,0.625,0,0,0,0,0
5.242,0.625,0,0,0,0,0
5.243,0,0,0,0,0,0
5.244,0.625,0,0,0,0,0
5.245,0,0,0,0,0,0
5.246,-0.3125,0,0,0,0,0
5.247,0,0,0,0,0,0
5.248,0.625,0,0,0,0,0
5.249,0,0,0,0,0,0
5.25,0,0,0,0,0,0
5.251,0,0,0,0,0,0
5.252,0,0,0,0,0,0
5.253,0,0,0,0,0,0
5.254,0.3125,0,0,0,0,0
5.255,0.625,0,0,0,0,0
5.256,0.625,0,0,0,0,0
5.257,0,0,0,0,0,0
5.258,-0.625,0,0,0,0,0
5.259,-0.625,0,0,0,0,0
5.26,-1.25,0,0,0,0,0
5.261,-1.25,0,0,0,0,0
5.262,-0.3125,0,0,0,0,0
5.263,0,0,0,0,0,0
5.264,-0.3125,0,0,0,0,0
5.265,-0.625,0,0,0,0,0
5.266,0,0,0,0,0,0
5.267,0.625,0,0,0,0,0
5.268,0.625,0,0,0,0,0
5.269,0.625,0,0,0,0,0
5.27,0.3125,0,0,0,0,0
5.271,0.625,0,0,0,0,0
5.272,0.3125,0,0,0,0,0
5.273,0.625,0,0,0,0,0
5.274,1.875,0,0,0,0,0
5.275,2.5,0,0,0,0,0
5.276,2.5,0,0,0,0,0
5.277,2.5,0,0,0,0,0
5.278,2.1875,0,0,0,0,0
5.279,1.875,0,0,0,0,0
5.28,2.1875,0,0,0,0,0
5.281,1.875,0,0,0,0,0
5.282,2.1875,0,0,0,0,0
5.283,1.875,0,0,0,0,0
5.284,1.25,0,0,0,0,0
5.285,0.625,0,0,0,0,0
5.286,0,0,0,0,0,0
5.287,0.625,0,0,0,0,0
5.288,0.9375,0,0,0,0,0
5.289,1.25,0,0,0,0,0
5.29,0.9375,0,0,0,0,0
5.291,0.625,0,0,0,0,0
5.292,1.25,0,0,0,0,0
5.293,1.25,0,0,0,0,0
5.294,1.5625,0,0,0,0,0
5.295,1.875,0,0,0,0,0
5.296,1.5625,0,0,0,0,0
5.297,1.875,0,0,0,0,0
5.298,1.25,0,0,0,0,0
5.299,1.25,0,0,0,0,0
5.3,2.1875,0,0,0,0,0
5.301,1.875,0,0,0,0,0
5.302,1.5625,0,0,0,0,0
5.303,1.25,0,0,0,0,0
5.304,1.5625,0,0,0,0,0
5.305,1.25,0,0,0,0,0
5.306,1.875,0,0,0,0,0
5.307,2.5,0,0,0,0,0
5.308,2.5,0,0,0,0,0
5.309,1.875,0,0,0,0,0
5.31,2.5,0,0,0,0,0
5.311,2.5,0,0,0,0,0
5.312,2.5,0,0,0,0,0
5.313,2.5,0,0,0,0,0
5.314,2.8125,0,0,0,0,0
5.315,3.125,0,0,0,0,0
5.316,3.125,0,0,0,0,0
5.317,3.125,0,0,0,0,0
5.318,3.125,0,0,0,0,0
5.319,3.75,0,0,0,0,0
5.32,3.75,0,0,0,0,0
5.321,3.75,0,0,0,0,0
5.322,3.75,0,0,0,0,0
5.323,3.75,0,0,0,0,0
5.324,4.375,0,0,0,0,0
5.325,4.375,0,0,0,0,0
5.326,3.75,0,0,0,0,0
5.327,4.375,0,0,0,0,0
5.328,4.375,0,0,0,0,0
5.329,4.375,0,0,0,0,0
5.33,4.375,0,0,0,0,0
5.331,4.375,0,0,0,0,0
5.332,4.6875,0,0,0,0,0
5.333,5,0,0,0,0,0
5.334,4.6875,0,0,0,0,0
5.335,5,0,0,0,0,0
5.336,5,0,0,0,0,0
5.337,5,0,0,0,0,0
5.338,5,0,0,0,0,0
5.339,5,0,0,0,0,0
5.34,5.3125,0,0,0,0,0
5.341,5.625,0,0,0,0,0
5.342,5.3125,0,0,0,0,0
5.343,5.625,0,0,0,0,0
5.344,5.3125,0,0,0,0,0
5.345,5,0,0,0,0,0
5.346,4.6875,0,0,0,0,0
5.347,4.375,0,0,0,0,0
5.348,4.375,0,0,0,0,0
5.349,4.375,0,0,0,0,0
5.35,4.375,0,0,0,0,0
5.351,5,0,0,0,0,0
5.352,5,0,0,0,0,0
5.353,5.625,0,0,0,0,0
5.354,6.25,0,0,0,0,0
5.355,6.875,0,0,0,0,0
5.356,6.25,0,0,0,0,0
5.357,6.25,0,0,0,0,0
5.358,6.25,0,0,0,0,0
5.359,5.625,0,0,0,0,0
5.36,6.5625,0,0,0,0,0
5.361,6.875,0,0,0,0,0
5.362,7.1875,0,0,0,0,0
5.363,7.5,0,0,0,0,0
5.364,7.8125,0,0,0,0,0
5.365,8.125,0,0,0,0,0
5.366,8.4375,0,0,0,0,0
5.367,9.375,0,0,0,0,0
5.368,8.75,0,0,0,0,0
5.369,9.375,0,0,0,0,0
5.37,8.75,0,0,0,0,0
5.371,8.75,0,0,0,0,0
5.372,9.0625,0,0,0,0,0
5.373,9.375,0,0,0,0,0
5.374,9.375,0,0,0,0,0
5.375,10,0,0,0,0,0
5.376,10,0,0,0,0,0
5.377,10,0,0,0,0,0
5.378,10,0,0,0,0,0
5.379,10,0,0,0,0,0
5.38,10.625,0,0,0,0,0
5.381,10.625,0,0,0,0,0
5.382,10.625,0,0,0,0,0
5.383,11.25,0,0,0,0,0
5.384,11.25,0,0,0,0,0
5.385,11.25,0,0,0,0,0
5.386,11.25,0,0,0,0,0
5.387,11.875,0,0,0,0,0
5.388,10.938,0,0,0,0,0
5.389,11.25,0,0,0,0,0
5.39,11.563,0,0,0,0,0
5.391,11.875,0,0,0,0,0
5.392,11.563,0,0,0,0,0
5.393,11.875,0,0,0,0,0
5.394,12.188,0,0,0,0,0
5.395,12.5,0,0,0,0,0
5.396,12.813,0,0,0,0,0
5.397,12.5,0,0,0,0,0
5.398,12.813,0,0,0,0,0
5.399,13.125,0,0,0,0,0
5.4,13.438,0,0,0,0,0
5.401,13.75,0,0,0,0,0
5.402,14.063,0,0,0,0,0
5.403,13.75,0,0,0,0,0
5.404,14.063,0,0,0,0,0
5.405,14.375,0,0,0,0,0
5.406,14.688,0,0,0,0,0
5.407,15.625,0,0,0,0,0
5.408,15.625,0,0,0,0,0
5.409,15.625,0,0,0,0,0
5.41,15.938,0,0,0,0,0
5.411,15.625,0,0,0,0,0
5.412,15,0,0,0,0,0
5.413,15.625,0,0,0,0,0
5.414,15.313,0,0,0,0,0
5.415,15,0,0,0,0,0
5.416,15,0,0,0,0,0
5.417,15,0,0,0,0,0
5.418,15.313,0,0,0,0,0
5.419,15.625,0,0,0,0,0
5.42,16.563,0,0,0,0,0
5.421,16.875,0,0,0,0,0
5.422,16.25,0,0,0,0,0
5.423,16.25,0,0,0,0,0
5.424,16.563,0,0,0,0,0
5.425,16.25,0,0,0,0,0
5.426,16.25,0,0,0,0,0
5.427,16.25,0,0,0,0,0
5.428,15.938,0,0,0,0,0
5.429,16.25,0,0,0,0,0
5.43,16.563,0,0,0,0,0
5.431,16.875,0,0,0,0,0
5.432,16.563,0,0,0,0,0
5.433,16.25,0,0,0,0,0
5.434,16.25,0,0,0,0,0
5.435,16.25,0,0,0,0,0
5.436,16.563,0,0,0,0,0
5.437,16.25,0,0,0,0,0
5.438,16.563,0,0,0,0,0
5.439,16.875,0,0,0,0,0
5.44,17.188,0,0,0,0,0
5.441,17.5,0,0,0,0,0
