0,2.375,0,0,0,0,0
0.001,2.5,0,0,0,0,0
0.002,2.625,0,0,0,0,0
0.003,2.8125,0,0,0,0,0
0.004,2.6875,0,0,0,0,0
0.005,2.5,0,0,0,0,0
0.006,2.1875,0,0,0,0,0
0.007,1.875,0,0,0,0,0
0.008,1.125,0,0,0,0,0
0.009,0.3125,0,0,0,0,0
0.01,1.5625,0,0,0,0,0
0.011,2.8125,0,0,0,0,0
0.012,3.125,0,0,0,0,0
0.013,3.4375,0,0,0,0,0
0.014,3.4375,0,0,0,0,0
0.015,3.4375,0,0,0,0,0
0.016,3.5625,0,0,0,0,0
0.017,3.75,0,0,0,0,0
0.018,2.8125,0,0,0,0,0
0.019,1.875,0,0,0,0,0
0.02,1.75,0,0,0,0,0
0.021,1.5625,0,0,0,0,0
0.022,2,0,0,0,0,0
0.023,2.5,0,0,0,0,0
0.024,1.875,0,0,0,0,0
0.025,1.25,0,0,0,0,0
0.026,1.25,0,0,0,0,0
0.027,1.25,0,0,0,0,0
0.028,1.6875,0,0,0,0,0
0.029,2.1875,0,0,0,0,0
0.03,2.3125,0,0,0,0,0
0.031,2.5,0,0,0,0,0
0.032,1.125,0,0,0,0,0
0.033,-0.3125,0,0,0,0,0
0.034,-1.25,0,0,0,0,0
0.035,-2.1875,0,0,0,0,0
0.036,-2.1875,0,0,0,0,0
0.037,-2.1875,0,0,0,0,0
0.038,-1.75,0,0,0,0,0
0.039,-1.25,0,0,0,0,0
0.04,-0.3125,0,0,0,0,0
0.041,0.625,0,0,0,0,0
0.042,0.625,0,0,0,0,0
0.043,0.625,0,0,0,0,0
0.044,0.3125,0,0,0,0,0
0.045,0,0,0,0,0,0
0.046,1.0625,0,0,0,0,0
0.047,2.1875,0,0,0,0,0
0.048,2.8125,0,0,0,0,0
0.049,3.4375,0,0,0,0,0
0.05,3.3125,0,0,0,0,0
0.051,3.125,0,0,0,0,0
0.052,3.125,0,0,0,0,0
0.053,3.125,0,0,0,0,0
0.054,2.375,0,0,0,0,0
0.055,1.5625,0,0,0,0,0
0.056,0.9375,0,0,0,0,0
0.057,0.3125,0,0,0,0,0
0.058,0.1875,0,0,0,0,0
0.059,0,0,0,0,0,0
0.06,0.4375,0,0,0,0,0
0.061,0.9375,0,0,0,0,0
0.062,0.9375,0,0,0,0,0
0.063,0.9375,0,0,0,0,0
0.064,1.25,0,0,0,0,0
0.065,1.5625,0,0,0,0,0
0.066,1.6875,0,0,0,0,0
0.067,1.875,0,0,0,0,0
0.068,1.75,0,0,0,0,0
0.069,1.5625,0,0,0,0,0
0.07,1.5625,0,0,0,0,0
0.071,1.5625,0,0,0,0,0
0.072,1.6875,0,0,0,0,0
0.073,1.875,0,0,0,0,0
0.074,2.3125,0,0,0,0,0
0.075,2.8125,0,0,0,0,0
0.076,3.25,0,0,0,0,0
0.077,3.75,0,0,0,0,0
0.078,3.875,0,0,0,0,0
0.079,4.0625,0,0,0,0,0
0.08,3.625,0,0,0,0,0
0.081,3.125,0,0,0,0,0
0.082,2.0625,0,0,0,0,0
0.083,0.9375,0,0,0,0,0
0.084,0.9375,0,0,0,0,0
0.085,0.9375,0,0,0,0,0
0.086,1.6875,0,0,0,0,0
0.087,2.5,0,0,0,0,0
0.088,2.8125,0,0,0,0,0
0.089,3.125,0,0,0,0,0
0.09,2.375,0,0,0,0,0
0.091,1.5625,0,0,0,0,0
0.092,1.4375,0,0,0,0,0
0.093,1.25,0,0,0,0,0
0.094,1.5625,0,0,0,0,0
0.095,1.875,0,0,0,0,0
0.096,1.875,0,0,0,0,0
0.097,1.875,0,0,0,0,0
0.098,1.875,0,0,0,0,0
0.099,1.875,0,0,0,0,0
0.1,2.625,0,0,0,0,0
0.101,3.4375,0,0,0,0,0
0.102,3.125,0,0,0,0,0
0.103,2.8125,0,0,0,0,0
0.104,2.1875,0,0,0,0,0
0.105,1.5625,0,0,0,0,0
0.106,2.625,0,0,0,0,0
0.107,3.75,0,0,0,0,0
0.108,5,0,0,0,0,0
0.109,6.25,0,0,0,0,0
0.11,5,0,0,0,0,0
0.111,3.75,0,0,0,0,0
0.112,3.75,0,0,0,0,0
0.113,3.75,0,0,0,0,0
0.114,4.375,0,0,0,0,0
0.115,5,0,0,0,0,0
0.116,4.875,0,0,0,0,0
0.117,4.6875,0,0,0,0,0
0.118,4.6875,0,0,0,0,0
0.119,4.6875,0,0,0,0,0
0.12,5,0,0,0,0,0
0.121,5.3125,0,0,0,0,0
0.122,4.875,0,0,0,0,0
0.123,4.375,0,0,0,0,0
0.124,4.25,0,0,0,0,0
0.125,4.0625,0,0,0,0,0
0.126,4.1875,0,0,0,0,0
0.127,4.375,0,0,0,0,0
0.128,4.8125,0,0,0,0,0
0.129,5.3125,0,0,0,0,0
0.13,4.875,0,0,0,0,0
0.131,4.375,0,0,0,0,0
0.132,4.6875,0,0,0,0,0
0.133,5,0,0,0,0,0
0.134,5.3125,0,0,0,0,0
0.135,5.625,0,0,0,0,0
0.136,4.6875,0,0,0,0,0
0.137,3.75,0,0,0,0,0
0.138,4.6875,0,0,0,0,0
0.139,5.625,0,0,0,0,0
0.14,5.5,0,0,0,0,0
0.141,5.3125,0,0,0,0,0
0.142,5.9375,0,0,0,0,0
0.143,6.5625,0,0,0,0,0
0.144,6.4375,0,0,0,0,0
0.145,6.25,0,0,0,0,0
0.146,6.875,0,0,0,0,0
0.147,7.5,0,0,0,0,0
0.148,7.8125,0,0,0,0,0
0.149,8.125,0,0,0,0,0
0.15,7.375,0,0,0,0,0
0.151,6.5625,0,0,0,0,0
0.152,6.5625,0,0,0,0,0
0.153,6.5625,0,0,0,0,0
0.154,6.5625,0,0,0,0,0
0.155,6.5625,0,0,0,0,0
0.156,6.5625,0,0,0,0,0
0.157,6.5625,0,0,0,0,0
0.158,6.4375,0,0,0,0,0
0.159,6.25,0,0,0,0,0
0.16,6.25,0,0,0,0,0
0.161,6.25,0,0,0,0,0
0.162,6.25,0,0,0,0,0
0.163,6.25,0,0,0,0,0
0.164,6.875,0,0,0,0,0
0.165,7.5,0,0,0,0,0
0.166,7.375,0,0,0,0,0
0.167,7.1875,0,0,0,0,0
0.168,7.0625,0,0,0,0,0
0.169,6.875,0,0,0,0,0
0.17,6.875,0,0,0,0,0
0.171,6.875,0,0,0,0,0
0.172,7.625,0,0,0,0,0
0.173,8.4375,0,0,0,0,0
0.174,8.5625,0,0,0,0,0
0.175,8.75,0,0,0,0,0
0.176,8.625,0,0,0,0,0
0.177,8.4375,0,0,0,0,0
0.178,9.0625,0,0,0,0,0
0.179,9.6875,0,0,0,0,0
0.18,10.125,0,0,0,0,0
0.181,10.625,0,0,0,0,0
0.182,9.875,0,0,0,0,0
0.183,9.0625,0,0,0,0,0
0.184,8.75,0,0,0,0,0
0.185,8.4375,0,0,0,0,0
0.186,8.4375,0,0,0,0,0
0.187,8.4375,0,0,0,0,0
0.188,8.75,0,0,0,0,0
0.189,9.0625,0,0,0,0,0
0.19,8.9375,0,0,0,1,0
0.191,8.75,0,0,0,0,0
0.192,8.4375,0,0,0,0,0
0.193,8.125,0,0,0,0,0
0.194,7.8125,0,0,0,0,0
0.195,7.5,0,0,0,0,0
0.196,7.5,0,0,0,0,0
0.197,7.5,0,0,0,0,0
0.198,7.625,0,0,0,0,0
0.199,7.8125,0,0,0,0,0
0.2,8.4375,0,0,0,0,0
0.201,9.0625,0,0,0,0,0
0.202,9.5,0,0,0,0,0
0.203,10,0,0,0,0,0
0.204,9.875,0,0,0,0,0
0.205,9.6875,0,0,0,0,0
0.206,9.6875,0,0,0,0,0
0.207,9.6875,0,0,0,0,0
0.208,8.625,0,0,0,0,0
0.209,7.5,0,0,0,0,0
0.21,7.375,0,0,0,0,0
0.211,7.1875,0,0,0,0,0
0.212,7.1875,0,0,0,0,0
0.213,7.1875,0,0,0,0,0
0.214,6.875,0,0,0,0,0
0.215,6.5625,0,0,0,0,0
0.216,5.9375,0,0,0,0,0
0.217,5.3125,0,0,0,0,0
0.218,6.375,0,0,0,0,0
0.219,7.5,0,0,0,0,0
0.22,7.5,0,0,0,0,0
0.221,7.5,0,0,0,0,0
0.222,7.375,0,0,0,0,0
0.223,7.1875,0,0,0,0,0
0.224,7.5,0,0,0,0,0
0.225,7.8125,0,0,0,0,0
0.226,7.9375,0,0,0,0,0
0.227,8.125,0,0,0,0,0
0.228,8.125,0,0,0,0,0
0.229,8.125,0,0,0,0,0
0.23,8.125,0,0,0,0,0
0.231,8.125,0,0,0,0,0
0.232,8.125,0,0,0,0,0
0.233,8.125,0,0,0,0,0
0.234,7.8125,0,0,0,0,0
0.235,7.5,0,0,0,0,0
0.236,6.75,0,0,0,0,0
0.237,5.9375,0,0,0,0,0
0.238,5.5,0,0,0,0,0
0.239,5,0,0,0,0,0
0.24,5.4375,0,0,0,0,0
0.241,5.9375,0,0,0,0,0
0.242,5.8125,0,0,0,0,0
0.243,5.625,0,0,0,0,0
0.244,5.3125,0,0,0,0,0
0.245,5,0,0,0,0,0
0.246,4.875,0,0,0,0,0
0.247,4.6875,0,0,0,0,0
0.248,4.6875,0,0,0,0,0
0.249,4.6875,0,0,0,0,0
0.25,4.6875,0,0,0,0,0
0.251,4.6875,0,0,0,0,0
0.252,5.625,0,0,0,0,0
0.253,6.5625,0,0,0,0,0
0.254,6.5625,0,0,0,0,0
0.255,6.5625,0,0,0,0,0
0.256,6.125,0,0,0,0,0
0.257,5.625,0,0,0,0,0
0.258,5.75,0,0,0,0,0
0.259,5.9375,0,0,0,0,0
0.26,5.8125,0,0,0,0,0
0.261,5.625,0,0,0,0,0
0.262,5,0,0,0,0,0
0.263,4.375,0,0,0,0,0
0.264,4.375,0,0,0,0,0
0.265,4.375,0,0,0,0,0
0.266,4.8125,0,0,0,0,0
0.267,5.3125,0,0,0,0,0
0.268,5.75,0,0,0,0,0
0.269,6.25,0,0,0,0,0
0.27,5.9375,0,0,0,0,0
0.271,5.625,0,0,0,0,0
0.272,5.625,0,0,0,0,0
0.273,5.625,0,0,0,0,0
0.274,5.3125,0,0,0,0,0
0.275,5,0,0,0,0,0
0.276,4.0625,0,0,0,0,0
0.277,3.125,0,0,0,0,0
0.278,3.75,0,0,0,0,0
0.279,4.375,0,0,0,0,0
0.28,4.375,0,0,0,0,0
0.281,4.375,0,0,0,0,0
0.282,3,0,0,0,0,0
0.283,1.5625,0,0,0,0,0
0.284,1.25,0,0,0,0,0
0.285,0.9375,0,0,0,0,1
0.286,1.25,0,0,0,0,0
0.287,1.5625,0,0,0,0,0
0.288,2.3125,0,0,0,0,0
0.289,3.125,0,0,0,0,0
0.29,3.125,0,0,0,0,0
0.291,3.125,0,0,0,0,0
0.292,3.75,0,0,0,0,0
0.293,4.375,0,0,0,0,0
0.294,4.5,0,0,0,0,0
0.295,4.6875,0,0,0,0,0
0.296,4.6875,0,0,0,0,0
0.297,4.6875,0,0,0,0,0
0.298,4.8125,0,0,0,0,0
0.299,5,0,0,0,0,0
0.3,5,0,0,0,0,0
0.301,5,0,0,0,0,0
0.302,5,0,0,0,0,0
0.303,5,0,0,0,0,0
0.304,4.875,0,0,0,0,0
0.305,4.6875,0,0,0,0,0
0.306,4.8125,0,0,0,0,0
0.307,5,0,0,0,0,0
0.308,4.875,0,0,0,0,0
0.309,4.6875,0,0,0,0,0
0.31,4.6875,0,0,0,0,0
0.311,4.6875,0,0,0,0,0
0.312,3.9375,0,0,0,0,0
0.313,3.125,0,0,0,0,0
0.314,3.4375,0,0,0,0,0
0.315,3.75,0,0,0,0,0
0.316,4.5,0,0,0,0,0
0.317,5.3125,0,0,0,0,0
0.318,5.9375,0,0,0,0,0
0.319,6.5625,0,0,0,0,0
0.32,6.5625,0,0,0,0,0
0.321,6.5625,0,0,0,0,0
0.322,6.25,0,0,0,0,0
0.323,5.9375,0,0,0,0,0
0.324,5.1875,0,0,0,0,0
0.325,4.375,0,0,0,0,0
0.326,4.375,0,0,0,0,0
0.327,4.375,0,0,0,0,0
0.328,4.0625,0,0,0,0,0
0.329,3.75,0,0,0,0,0
0.33,4.0625,0,0,0,0,0
0.331,4.375,0,0,0,0,0
0.332,4.375,0,0,0,0,0
0.333,4.375,0,0,0,0,0
0.334,4.375,0,0,0,0,0
0.335,4.375,0,0,0,0,0
0.336,4.25,0,0,0,0,0
0.337,4.0625,0,0,0,0,0
0.338,4.8125,0,0,0,0,0
0.339,5.625,0,0,0,0,0
0.34,5.75,0,0,0,0,0
0.341,5.9375,0,0,0,0,0
0.342,6.6875,0,0,0,0,0
0.343,7.5,0,0,0,0,0
0.344,6.875,0,0,0,0,0
0.345,6.25,0,0,0,0,0
0.346,5.1875,0,0,0,0,0
0.347,4.0625,0,0,0,0,0
0.348,4.0625,0,0,0,0,0
0.349,4.0625,0,0,0,0,0
0.35,4.375,0,0,0,0,0
0.351,4.6875,0,0,0,0,0
0.352,5,0,0,0,0,0
0.353,5.3125,0,0,0,0,0
0.354,5.3125,0,0,0,0,0
0.355,5.3125,0,0,0,0,0
0.356,5.3125,0,0,0,0,0
0.357,5.3125,0,0,0,0,0
0.358,5.3125,0,0,0,0,0
0.359,5.3125,0,0,0,0,0
0.36,5.1875,0,0,0,0,0
0.361,5,0,0,0,0,0
0.362,5,0,0,0,0,0
0.363,5,0,0,0,0,0
0.364,4.25,0,0,0,0,0
0.365,3.4375,0,0,0,0,0
0.366,3.125,0,0,0,0,0
0.367,2.8125,0,0,0,0,0
0.368,2.9375,0,0,0,0,0
0.369,3.125,0,0,0,0,0
0.37,3,0,0,0,0,0
0.371,2.8125,0,0,0,0,0
0.372,3.4375,0,0,0,0,0
0.373,4.0625,0,0,0,0,0
0.374,4.0625,0,0,0,0,0
0.375,4.0625,0,0,0,0,0
0.376,3.9375,0,0,0,0,0
0.377,3.75,0,0,0,0,0
0.378,3.75,0,0,0,0,0
0.379,3.75,0,0,0,0,0
0.38,3.625,0,0,0,0,0
0.381,3.4375,0,0,0,0,0
0.382,3.3125,0,0,0,0,0
0.383,3.125,0,0,0,0,0
0.384,2.6875,0,0,0,0,0
0.385,2.1875,0,0,0,0,0
0.386,2.8125,0,0,0,0,0
0.387,3.4375,0,0,0,0,0
0.388,4.5,0,0,0,0,0
0.389,5.625,0,0,0,0,0
0.39,5.9375,0,0,0,0,0
0.391,6.25,0,0,0,0,0
0.392,5.8125,0,0,0,0,0
0.393,5.3125,0,0,0,0,0
0.394,5.625,0,0,0,0,0
0.395,4.6875,0,0,0,0,0
0.396,3.9375,0,0,0,0,0
0.397,3.4375,0,0,0,0,0
0.398,2.5,0,0,0,0,0
0.399,1.5625,0,0,0,0,0
0.4,1.5625,0,0,0,0,0
0.401,1.875,0,0,0,0,0
0.402,1.875,0,0,0,0,0
0.403,2.1875,0,0,0,0,0
0.404,3.125,0,0,0,0,0
0.405,3.75,0,0,0,0,0
0.406,4.5625,0,0,0,0,0
0.407,4.6875,0,0,0,0,0
0.408,5.3125,0,0,0,0,0
0.409,5,0,0,0,0,0
0.41,5.3125,0,0,0,0,0
0.411,5.625,0,0,0,0,0
0.412,5.9375,0,0,0,0,0
0.413,6.875,0,0,0,0,0
0.414,6.875,0,0,0,0,0
0.415,5.625,0,0,0,0,0
0.416,5.3125,0,0,0,0,0
0.417,4.6875,0,0,0,0,0
0.418,4.6875,0,0,0,0,0
0.419,4.375,0,0,0,0,0
0.42,4.5,0,0,0,0,0
0.421,4.375,0,0,0,0,0
0.422,4.0625,0,0,0,0,0
0.423,3.4375,0,0,0,0,0
0.424,1.875,0,0,0,0,0
0.425,0.625,0,0,0,0,0
0.426,2.1875,0,0,0,0,0
0.427,3.75,0,0,0,0,0
0.428,3.5625,0,0,0,0,0
0.429,3.75,0,0,0,0,0
0.43,3.75,0,0,0,0,0
0.431,4.0625,0,0,0,0,0
0.432,4.0625,0,0,0,0,0
0.433,4.375,0,0,0,0,0
0.434,5.125,0,0,0,0,0
0.435,5.625,0,0,0,0,0
0.436,6.0625,0,0,0,0,0
0.437,5.625,0,0,0,0,0
0.438,4.875,0,0,0,0,0
0.439,4.0625,0,0,0,0,0
0.44,3.9375,0,0,0,0,0
0.441,4.0625,0,0,0,0,0
0.442,4.1875,0,0,0,0,0
0.443,4.0625,0,0,0,0,0
0.444,3.9375,0,0,0,0,0
0.445,3.75,0,0,0,0,0
0.446,3.75,0,0,0,0,0
0.447,3.4375,0,0,0,0,0
0.448,3.75,0,0,0,0,0
0.449,3.75,0,0,0,0,0
0.45,2.6875,0,0,0,0,0
0.451,1.875,0,0,0,0,0
0.452,1.5625,0,0,0,0,0
0.453,1.5625,0,0,0,0,0
0.454,2,0,0,0,0,0
0.455,1.875,0,0,0,0,0
0.456,2.625,0,0,0,0,0
0.457,3.4375,0,0,0,0,0
0.458,4.1875,0,0,0,0,0
0.459,4.375,0,0,0,0,0
0.46,5,0,0,0,0,0
0.461,5.9375,0,0,0,0,0
0.462,5.5,0,0,0,0,0
0.463,5.625,0,0,0,0,0
0.464,6.0625,0,0,0,0,0
0.465,5.9375,0,0,0,0,0
0.466,5.9375,0,0,0,0,0
0.467,5.625,0,0,0,0,0
0.468,5.1875,0,0,0,0,0
0.469,5.3125,0,0,0,0,0
0.47,3.3125,0,0,0,0,0
0.471,1.875,0,0,0,0,0
0.472,1.4375,0,0,0,0,0
0.473,0.9375,0,0,0,0,0
0.474,1.25,0,0,0,0,0
0.475,1.25,0,0,0,0,0
0.476,1.875,0,0,0,0,0
0.477,2.1875,0,0,0,0,0
0.478,2.9375,0,0,0,0,0
0.479,3.75,0,0,0,0,0
0.48,4.0625,0,0,0,0,0
0.481,4.6875,0,0,0,0,0
0.482,4.8125,0,0,0,0,0
0.483,5,0,0,0,0,0
0.484,5,0,0,0,0,0
0.485,5.3125,0,0,0,0,0
0.486,5.3125,0,0,0,0,0
0.487,5.9375,0,0,0,0,0
0.488,5.9375,0,0,0,0,0
0.489,6.25,0,0,0,0,0
0.49,6.375,0,0,0,0,0
0.491,6.5625,0,0,0,0,0
0.492,5.9375,0,0,0,0,0
0.493,6.5625,0,0,0,0,0
0.494,7,0,0,0,0,0
0.495,6.25,0,0,0,0,0
0.496,5.3125,0,0,0,0,0
0.497,4.0625,0,0,0,0,0
0.498,2.6875,0,0,0,0,0
0.499,1.25,0,0,0,0,0
0.5,1.875,0,0,0,0,0
0.501,1.25,0,0,0,0,0
0.502,1.0625,0,0,0,0,0
0.503,1.875,0,0,0,0,0
0.504,2.0625,0,0,0,0,0
0.505,1.875,0,0,0,0,0
0.506,2.0625,0,0,0,0,0
0.507,1.875,0,0,0,0,0
0.508,1.875,0,0,0,0,0
0.509,2.1875,0,0,0,0,0
0.51,3.25,0,0,0,0,0
0.511,3.75,0,0,0,0,0
0.512,3.4375,0,0,0,0,0
0.513,3.125,0,0,0,0,0
0.514,3.875,0,0,0,0,0
0.515,3.75,0,0,0,0,0
0.516,3.5625,0,0,0,0,0
0.517,3.75,0,0,0,0,0
0.518,3.125,0,0,0,0,0
0.519,3.4375,0,0,0,0,0
0.52,3.875,0,0,0,0,0
0.521,3.75,0,0,0,0,0
0.522,2.8125,0,0,0,0,0
0.523,2.5,0,0,0,0,0
0.524,2.8125,0,0,0,0,0
0.525,3.125,0,0,0,0,0
0.526,4.375,0,0,0,0,0
0.527,5.3125,0,0,0,0,0
0.528,5.3125,0,0,0,0,0
0.529,5.3125,0,0,0,0,0
0.53,4.5625,0,0,0,0,0
0.531,3.75,0,0,0,0,0
0.532,3.75,0,0,0,0,0
0.533,4.0625,0,0,0,0,0
0.534,4.5,0,0,0,0,0
0.535,4.6875,0,0,0,0,0
0.536,4.8125,0,0,0,0,0
0.537,5.9375,0,0,0,0,0
0.538,6.4375,0,0,0,0,0
0.539,6.25,0,0,0,0,0
0.54,6.25,0,0,0,0,0
0.541,6.875,0,0,0,0,0
0.542,5.9375,0,0,0,0,0
0.543,5.625,0,0,0,0,0
0.544,5,0,0,0,0,0
0.545,4.6875,0,0,0,0,0
0.546,5.3125,0,0,0,0,0
0.547,5.3125,0,0,0,0,0
0.548,5.1875,0,0,0,0,0
0.549,5,0,0,0,0,0
0.55,5.625,0,0,0,0,0
0.551,6.25,0,0,0,0,0
0.552,5.8125,0,0,0,0,0
0.553,5.3125,0,0,0,0,0
0.554,4.25,0,0,0,0,0
0.555,3.4375,0,0,0,0,0
0.556,2.8125,0,0,0,0,0
0.557,2.8125,0,0,0,0,0
0.558,2.0625,0,0,0,0,0
0.559,1.5625,0,0,0,0,0
0.56,1.5625,0,0,0,0,0
0.561,1.5625,0,0,0,0,0
0.562,1.875,0,0,0,0,0
0.563,2.5,0,0,0,0,0
0.564,2.3125,0,0,0,0,0
0.565,1.875,0,0,0,0,0
0.566,3.25,0,0,0,0,0
0.567,4.375,0,0,0,0,0
0.568,3.3125,0,0,0,0,0
0.569,3.4375,0,0,0,0,0
0.57,2.6875,0,0,0,0,0
0.571,1.25,0,0,0,0,0
0.572,0.9375,0,0,0,0,0
0.573,0.9375,0,0,0,0,0
0.574,2,0,0,0,0,0
0.575,2.8125,0,0,0,0,0
0.576,2.625,0,0,0,0,0
0.577,2.8125,0,0,0,0,0
0.578,2.625,0,0,0,0,0
0.579,3.125,0,0,0,0,0
0.58,3.4375,0,0,0,0,0
0.581,3.75,0,0,0,0,0
0.582,4.1875,0,0,0,0,0
0.583,4.375,0,0,0,0,0
0.584,3.75,0,0,0,0,0
0.585,3.4375,0,0,0,0,0
0.586,3.25,0,0,0,0,0
0.587,3.4375,0,0,0,0,0
0.588,3.125,0,0,0,0,0
0.589,2.8125,0,0,0,0,0
0.59,3.3125,0,0,0,0,0
0.591,3.125,0,0,0,0,0
0.592,3.5625,0,0,0,0,0
0.593,2.8125,0,0,0,0,0
0.594,3.875,0,0,0,0,0
0.595,4.375,0,0,0,0,0
0.596,4.25,0,0,0,0,0
0.597,4.375,0,0,0,0,0
0.598,4.6875,0,0,0,0,0
0.599,5,0,0,0,0,0
0.6,5.625,0,0,0,0,0
0.601,5.9375,0,0,0,0,0
0.602,6.5625,0,0,0,0,0
0.603,7.5,0,0,0,0,0
0.604,7.0625,0,0,0,0,0
0.605,6.875,0,0,0,0,0
0.606,7.375,0,0,0,0,0
0.607,7.5,0,0,0,0,0
0.608,7.375,0,0,0,0,0
0.609,6.5625,0,0,0,0,0
0.61,5.625,0,0,0,0,0
0.611,5.3125,0,0,0,0,0
0.612,4.25,0,0,0,0,0
0.613,3.4375,0,0,0,0,0
0.614,3.625,0,0,0,0,0
0.615,3.4375,0,0,0,0,0
0.616,3,0,0,0,0,0
0.617,1.5625,0,0,0,0,0
0.618,1.875,0,0,0,0,0
0.619,1.875,0,0,0,0,0
0.62,2.5,0,0,0,0,0
0.621,3.125,0,0,0,0,0
0.622,2.5,0,0,0,0,0
0.623,2.8125,0,0,0,0,0
0.624,2.6875,0,0,0,0,0
0.625,2.1875,0,0,0,0,0
0.626,1.875,0,0,0,0,0
0.627,2.1875,0,0,0,0,0
0.628,2.3125,0,0,0,0,0
0.629,2.8125,0,0,0,0,0
0.63,2.8125,0,0,0,0,0
0.631,2.8125,0,0,0,0,0
0.632,3.25,0,0,0,0,0
0.633,3.4375,0,0,0,0,0
0.634,3.75,0,0,0,0,0
0.635,4.375,0,0,0,0,0
0.636,4.0625,0,0,0,0,0
0.637,4.0625,0,0,0,0,0
0.638,3.4375,0,0,0,0,0
0.639,2.5,0,0,0,0,0
0.64,2.3125,0,0,0,0,0
0.641,3.125,0,0,0,0,0
0.642,2.9375,0,0,0,0,0
0.643,2.8125,0,0,0,0,0
0.644,3,0,0,0,0,0
0.645,3.75,0,0,0,0,0
0.646,5,0,0,0,0,0
0.647,5,0,0,0,0,0
0.648,6.0625,0,0,0,0,0
0.649,6.25,0,0,0,0,0
0.65,5.8125,0,0,0,0,0
0.651,5.625,0,0,0,0,0
0.652,6.125,0,0,0,0,0
0.653,6.5625,0,0,0,0,0
0.654,6.5625,0,0,0,0,0
0.655,5.625,0,0,0,0,0
0.656,6.0625,0,0,0,0,0
0.657,7.1875,0,0,0,0,0
0.658,7.625,0,0,0,0,0
0.659,7.8125,0,0,0,0,0
0.66,6.875,0,0,0,0,0
0.661,7.5,0,0,0,0,0
0.662,7.8125,0,0,0,0,0
0.663,7.1875,0,0,0,0,0
0.664,6.875,0,0,0,0,0
0.665,7.5,0,0,0,0,0
0.666,7.8125,0,0,0,0,0
0.667,7.8125,0,0,0,0,0
0.668,6.5625,0,0,0,0,0
0.669,5.3125,0,0,0,0,0
0.67,5.4375,0,0,0,0,0
0.671,5.3125,0,0,0,0,0
0.672,4.25,0,0,0,0,0
0.673,3.75,0,0,0,0,0
0.674,4.5625,0,0,0,0,0
0.675,4.375,0,0,0,0,0
0.676,4.25,0,0,0,0,0
0.677,3.4375,0,0,0,0,0
0.678,3.875,0,0,0,0,0
0.679,3.75,0,0,0,0,0
0.68,4.8125,0,0,0,0,0
0.681,5.9375,0,0,0,0,0
0.682,5.9375,0,0,0,0,0
0.683,5.9375,0,0,0,0,0
0.684,5,0,0,0,0,0
0.685,4.375,0,0,0,0,0
0.686,5.3125,0,0,0,0,0
0.687,5.625,0,0,0,0,0
0.688,5.125,0,0,0,0,0
0.689,5.625,0,0,0,0,0
0.69,5.9375,0,0,0,0,0
0.691,5.9375,0,0,0,0,0
0.692,5.9375,0,0,0,0,0
0.693,5.9375,0,0,0,0,0
0.694,6.5625,0,0,0,0,0
0.695,6.5625,0,0,0,0,0
0.696,7,0,0,0,0,0
0.697,6.875,0,0,0,0,0
0.698,5.8125,0,0,0,0,0
0.699,5.9375,0,0,0,0,0
0.7,7.625,0,0,0,0,0
0.701,8.75,0,0,0,0,0
0.702,8.4375,0,0,0,0,0
0.703,9.0625,0,0,0,0,0
0.704,8.9375,0,0,0,0,0
0.705,8.125,0,0,0,0,0
0.706,8.5625,0,0,0,0,0
0.707,9.375,0,0,0,0,0
0.708,10.313,0,0,0,0,0
0.709,10.938,0,0,0,0,0
0.71,10.938,0,0,0,0,0
0.711,11.563,0,0,0,0,0
0.712,10.5,0,0,0,0,0
0.713,9.375,0,0,0,0,0
0.714,9.0625,0,0,0,0,0
0.715,8.75,0,0,0,0,0
0.716,6.4375,0,0,0,0,0
0.717,4.6875,0,0,0,0,0
0.718,4.375,0,0,0,0,0
0.719,3.75,0,0,0,0,0
0.72,3.75,0,0,0,0,0
0.721,4.0625,0,0,0,0,0
0.722,4.0625,0,0,0,0,0
0.723,4.375,0,0,0,0,0
0.724,3.9375,0,0,0,0,0
0.725,3.4375,0,0,0,0,0
0.726,4.0625,0,0,0,0,0
0.727,4.375,0,0,0,0,0
0.728,3.75,0,0,0,0,0
0.729,4.0625,0,0,0,0,0
0.73,3.625,0,0,0,0,0
0.731,2.5,0,0,0,0,0
0.732,2.1875,0,0,0,0,0
0.733,1.875,0,0,0,0,0
0.734,2.625,0,0,0,0,0
0.735,3.125,0,0,0,0,0
0.736,3.4375,0,0,0,0,0
0.737,3.75,0,0,0,0,0
0.738,3.625,0,0,0,0,0
0.739,4.375,0,0,0,0,0
0.74,4.25,0,0,0,0,0
0.741,4.375,0,0,0,0,0
0.742,4.6875,0,0,0,0,0
0.743,4.0625,0,0,0,0,0
0.744,3.625,0,0,0,0,0
0.745,3.125,0,0,0,0,0
0.746,3.625,0,0,0,0,0
0.747,4.0625,0,0,0,0,0
0.748,5,0,0,0,0,0
0.749,5.3125,0,0,0,0,0
0.75,4.8125,0,0,0,0,0
0.751,4.6875,0,0,0,0,0
0.752,4.875,0,0,0,0,0
0.753,4.375,0,0,0,0,0
0.754,5.125,0,0,0,0,0
0.755,5.3125,0,0,0,0,0
0.756,4.5625,0,0,0,0,0
0.757,5,0,0,0,0,0
0.758,5.125,0,0,0,0,0
0.759,5.625,0,0,0,0,0
0.76,5,0,0,0,0,0
0.761,5.3125,0,0,0,0,0
0.762,5.1875,0,0,0,0,0
0.763,5.3125,0,0,0,0,0
0.764,4.25,0,0,0,0,0
0.765,2.8125,0,0,0,0,0
0.766,3.25,0,0,0,0,0
0.767,2.8125,0,0,0,0,0
0.768,2.6875,0,0,0,0,0
0.769,3.125,0,0,0,0,0
0.77,2.5,0,0,0,0,0
0.771,1.875,0,0,0,0,0
0.772,1.25,0,0,0,0,0
0.773,1.5625,0,0,0,0,0
0.774,2.1875,0,0,0,0,0
0.775,1.875,0,0,0,0,0
0.776,2,0,0,0,0,0
0.777,1.875,0,0,0,0,0
0.778,2.6875,0,0,0,0,0
0.779,3.125,0,0,0,0,0
0.78,2.8125,0,0,0,0,0
0.781,3.125,0,0,0,0,0
0.782,3.25,0,0,0,0,0
0.783,3.4375,0,0,0,0,0
0.784,2.6875,0,0,0,0,0
0.785,2.5,0,0,0,0,0
0.786,2.9375,0,0,0,0,0
0.787,3.125,0,0,0,0,0
0.788,3.875,0,0,0,0,0
0.789,4.375,0,0,0,0,0
0.79,3.9375,0,0,0,0,0
0.791,3.75,0,0,0,0,0
0.792,3.4375,0,0,0,0,0
0.793,2.8125,0,0,0,0,0
0.794,3.4375,0,0,0,0,0
0.795,2.8125,0,0,0,0,0
0.796,2.8125,0,0,0,0,0
0.797,2.5,0,0,0,0,0
0.798,2.625,0,0,0,0,0
0.799,3.75,0,0,0,0,0
0.8,4.1875,0,0,0,0,0
0.801,4.6875,0,0,0,0,0
0.802,5.3125,0,0,0,0,0
0.803,5.3125,0,0,0,0,0
0.804,5.3125,0,0,0,0,0
0.805,5.625,0,0,0,0,0
0.806,5.8125,0,0,0,0,0
0.807,5.9375,0,0,0,0,0
0.808,5.8125,0,0,0,0,0
0.809,5.9375,0,0,0,0,0
0.81,6.125,0,0,0,0,0
0.811,5.625,0,0,0,0,0
0.812,4.6875,0,0,0,0,0
0.813,4.375,0,0,0,0,0
0.814,4.375,0,0,0,0,0
0.815,4.375,0,0,0,0,0
0.816,4.375,0,0,0,0,0
0.817,4.0625,0,0,0,0,0
0.818,3.4375,0,0,0,0,0
0.819,2.8125,0,0,0,0,0
0.82,2.0625,0,0,0,0,0
0.821,1.5625,0,0,0,0,0
0.822,0,0,0,0,0,0
0.823,-0.625,0,0,0,0,0
0.824,-1.25,1,0,0,0,0
0.825,-1.25,0,0,0,0,0
0.826,0.125,0,0,0,0,0
0.827,0.9375,0,0,0,0,0
0.828,1.125,0,0,0,0,0
0.829,0.9375,0,0,0,0,0
0.83,0.625,0,0,0,0,0
0.831,0,0,0,0,0,0
0.832,0.75,0,0,0,0,0
0.833,1.25,0,0,0,0,0
0.834,2.8125,0,0,0,0,0
0.835,3.4375,0,0,0,0,0
0.836,3.3125,0,0,0,0,0
0.837,3.125,0,0,0,0,0
0.838,3.125,0,0,0,0,0
0.839,3.4375,0,0,0,0,0
0.84,3.875,0,0,0,0,0
0.841,4.6875,0,0,0,0,0
0.842,4.5,0,0,0,0,0
0.843,4.6875,0,0,0,0,0
0.844,3.625,0,0,0,0,0
0.845,3.4375,0,0,0,0,0
0.846,3.4375,0,0,0,0,0
0.847,3.75,0,0,0,0,0
0.848,4.1875,0,0,0,0,0
0.849,4.0625,0,0,0,0,0
0.85,4.6875,0,0,0,0,0
0.851,6.25,0,0,0,0,0
0.852,5,0,0,0,0,0
0.853,5.3125,0,0,0,0,0
0.854,6.375,0,0,0,0,0
0.855,6.5625,0,0,0,0,0
0.856,6.4375,0,0,0,0,0
0.857,6.5625,0,0,0,0,0
0.858,7.5,0,0,0,0,0
0.859,8.4375,0,0,0,0,0
0.86,8.75,0,0,0,0,0
0.861,9.6875,0,0,0,0,0
0.862,10.188,0,0,0,0,0
0.863,10.313,0,0,0,0,0
0.864,10.5,0,0,0,0,0
0.865,10.625,0,0,0,0,0
0.866,11.688,0,0,0,0,0
0.867,13.438,0,0,0,0,0
0.868,14.813,0,0,0,0,0
0.869,16.25,0,0,0,0,0
0.87,17.625,0,0,0,0,0
0.871,19.375,0,0,0,0,0
0.872,20.938,0,0,0,0,0
0.873,22.5,0,0,0,0,0
0.874,23.875,0,0,0,0,0
0.875,25.313,0,0,0,0,0
0.876,25.813,0,0,0,0,0
0.877,25.625,0,0,0,0,0
0.878,25.5,0,0,0,0,0
0.879,26.563,0,0,0,0,0
0.88,29.188,0,0,0,0,0
0.881,31.563,0,0,0,0,0
0.882,32.313,0,0,0,0,0
0.883,33.75,0,0,0,0,0
0.884,32.813,0,0,0,0,0
0.885,32.188,0,0,0,0,0
0.886,33.125,0,0,0,0,0
0.887,33.438,0,0,0,0,0
0.888,35.313,0,1,0,0,0
0.889,36.563,0,0,0,0,0
0.89,36.563,0,0,0,0,0
0.891,36.25,0,0,0,0,0
0.892,35.313,0,0,0,0,0
0.893,33.75,0,0,0,0,0
0.894,32.5,0,0,0,0,0
0.895,29.688,0,0,0,0,0
0.896,25.313,0,0,0,0,0
0.897,20.938,0,0,0,0,0
0.898,18.125,0,0,0,0,0
0.899,15,0,0,0,0,0
0.9,12.313,0,0,0,0,0
0.901,10.625,0,0,0,0,0
0.902,8.125,0,0,0,0,0
0.903,4.6875,0,0,0,0,0
0.904,2.3125,0,0,0,0,0
0.905,0.3125,0,0,0,0,0
0.906,-2.9375,0,0,0,0,0
0.907,-5,0,0,0,0,0
0.908,-5.1875,0,0,0,0,0
0.909,-5.625,0,0,0,0,0
0.91,-6.75,0,0,0,0,0
0.911,-7.5,0,0,0,0,0
0.912,-7.5,0,0,0,0,0
0.913,-7.8125,0,0,0,0,0
0.914,-7.1875,0,0,0,0,0
0.915,-6.875,0,0,0,0,0
0.916,-5.5,0,0,0,0,0
0.917,-3.125,0,0,0,0,0
0.918,-1.25,0,0,0,0,0
0.919,0.625,0,0,0,0,0
0.92,1.25,0,0,0,0,0
0.921,1.25,0,0,0,0,0
0.922,1.125,0,0,0,0,0
0.923,0.9375,0,0,0,0,0
0.924,2.3125,0,0,0,0,0
0.925,3.4375,0,0,1,0,0
0.926,4.5,0,0,0,0,0
0.927,4.6875,0,0,0,0,0
0.928,5.625,0,0,0,0,0
0.929,5.9375,0,0,0,0,0
0.93,5.8125,0,0,0,0,0
0.931,5,0,0,0,0,0
0.932,4.375,0,0,0,0,0
0.933,4.375,0,0,0,0,0
0.934,3.625,0,0,0,0,0
0.935,2.1875,0,0,0,0,0
0.936,1.4375,0,0,0,0,0
0.937,1.5625,0,0,0,0,0
0.938,2.1875,0,0,0,0,0
0.939,3.125,0,0,0,0,0
0.94,3.4375,0,0,0,0,0
0.941,3.75,0,0,0,0,0
0.942,2.5,0,0,0,0,0
0.943,1.5625,0,0,0,0,0
0.944,1.4375,0,0,0,0,0
0.945,1.5625,0,0,0,0,0
0.946,2,0,0,0,0,0
0.947,2.5,0,0,0,0,0
0.948,3.25,0,0,0,0,0
0.949,3.4375,0,0,0,0,0
0.95,3.125,0,0,0,0,0
0.951,3.125,0,0,0,0,0
0.952,2.5,0,0,0,0,0
0.953,1.5625,0,0,0,0,0
0.954,1.4375,0,0,0,0,0
0.955,0.9375,0,0,0,0,0
0.956,1.375,0,0,0,0,0
0.957,0.9375,0,0,0,0,0
0.958,1.6875,0,0,0,0,0
0.959,2.1875,0,0,0,0,0
0.96,1.5625,0,0,0,0,0
0.961,1.875,0,0,0,0,0
0.962,2,0,0,0,0,0
0.963,2.5,0,0,0,0,0
0.964,3.125,0,0,0,0,0
0.965,3.4375,0,0,0,0,0
0.966,3.4375,0,0,0,0,0
0.967,2.8125,0,0,0,0,0
0.968,2.625,0,0,0,0,0
0.969,2.8125,0,0,0,0,0
0.97,3.4375,0,0,0,0,0
0.971,2.8125,0,0,0,0,0
0.972,3,0,0,0,0,0
0.973,2.8125,0,0,0,0,0
0.974,2.9375,0,0,0,0,0
0.975,2.8125,0,0,0,0,0
0.976,2.1875,0,0,0,0,0
0.977,1.5625,0,0,0,0,0
0.978,0.8125,0,0,0,0,0
0.979,0,0,0,0,0,0
0.98,-0.3125,0,0,0,0,0
0.981,0,0,0,0,0,0
0.982,-0.625,0,0,0,0,0
0.983,-0.9375,0,0,0,0,0
0.984,-1.125,0,0,0,0,0
0.985,-1.25,0,0,0,0,0
0.986,-0.4375,0,0,0,0,0
0.987,0,0,0,0,0,0
0.988,1.0625,0,0,0,0,0
0.989,1.875,0,0,0,0,0
0.99,2,0,0,0,0,0
0.991,2.1875,0,0,0,0,0
0.992,2,0,0,0,0,0
0.993,1.875,0,0,0,0,0
0.994,2.5,0,0,0,0,0
0.995,2.5,0,0,0,0,0
0.996,2.5,0,0,0,0,0
0.997,2.5,0,0,0,0,0
0.998,3.125,0,0,0,0,0
0.999,3.125,0,0,0,0,0
1,2.3125,0,0,0,0,0
1.001,2.5,0,0,0,0,0
1.002,2.9375,0,0,0,0,0
1.003,3.125,0,0,0,0,0
1.004,3.75,0,0,0,0,0
1.005,3.75,0,0,0,0,0
1.006,2.6875,0,0,0,0,0
1.007,2.8125,0,0,0,0,0
1.008,2.5,0,0,0,0,0
1.009,2.1875,0,0,0,0,0
1.01,0.8125,0,0,0,0,0
1.011,0,0,0,0,0,0
1.012,0.3125,0,0,0,0,0
1.013,0,0,0,0,0,0
1.014,0.9375,0,0,0,0,0
1.015,0.9375,0,0,0,0,0
1.016,1.0625,0,0,0,0,0
1.017,1.5625,0,0,0,0,0
1.018,2.5,0,0,0,0,0
1.019,2.8125,0,0,0,0,0
1.02,2.1875,0,0,0,0,0
1.021,2.1875,0,0,0,0,0
1.022,2.625,0,0,0,0,0
1.023,3.4375,0,0,0,0,0
1.024,2.1875,0,0,0,0,0
1.025,2.1875,0,0,0,0,0
1.026,1.875,0,0,0,0,0
1.027,1.25,0,0,0,0,0
1.028,1.25,0,0,0,0,0
1.029,0.9375,0,0,0,0,0
1.03,1.875,0,0,0,0,0
1.031,1.875,0,0,0,0,0
1.032,1.25,0,0,0,0,0
1.033,1.875,0,0,0,0,0
1.034,1.5625,0,0,0,0,0
1.035,0.9375,0,0,0,0,0
1.036,0.5,0,0,0,0,0
1.037,-0.3125,0,0,0,0,0
1.038,0.625,0,0,0,0,0
1.039,1.5625,0,0,0,0,0
1.04,1.5625,0,0,0,0,0
1.041,2.1875,0,0,0,0,0
1.042,2.1875,0,0,0,0,0
1.043,2.8125,0,0,0,0,0
1.044,3.4375,0,0,0,0,0
1.045,3.125,0,0,0,0,0
1.046,3.25,0,0,0,0,0
1.047,3.4375,0,0,0,0,0
1.048,3,0,0,0,0,0
1.049,2.5,0,0,0,0,0
1.05,2.375,0,0,0,0,0
1.051,0.625,0,0,0,0,0
1.052,0.3125,0,0,0,0,0
1.053,0.9375,0,0,0,0,0
1.054,1.125,0,0,0,0,0
1.055,1.25,0,0,0,0,0
1.056,1.6875,0,0,0,0,0
1.057,1.25,0,0,0,0,0
1.058,1.5625,0,0,0,0,0
1.059,2.1875,0,0,0,0,0
1.06,2.8125,0,0,0,0,0
1.061,2.8125,0,0,0,0,0
1.062,2.625,0,0,0,0,0
1.063,2.5,0,0,0,0,0
1.064,2.8125,0,0,0,0,0
1.065,2.8125,0,0,0,0,0
1.066,2.5,0,0,0,0,0
1.067,2.5,0,0,0,0,0
1.068,2.5,0,0,0,0,0
1.069,2.5,0,0,0,0,0
1.07,2.9375,0,0,0,0,0
1.071,2.8125,0,0,0,0,0
1.072,3.3125,0,0,0,0,0
1.073,3.4375,0,0,0,0,0
1.074,2.5,0,0,0,0,0
1.075,2.1875,0,0,0,0,0
1.076,0.8125,0,0,0,0,0
1.077,-0.625,0,0,0,0,0
1.078,-0.1875,0,0,0,0,0
1.079,0,0,0,0,0,0
1.08,0.4375,0,0,0,0,0
1.081,1.25,0,0,0,0,0
1.082,2.1875,0,0,0,0,0
1.083,2.8125,0,0,0,0,0
1.084,1.875,0,0,0,0,0
1.085,1.25,0,0,0,0,0
1.086,1.6875,0,0,0,0,0
1.087,1.875,0,0,0,0,0
1.088,1.875,0,0,0,0,0
1.089,1.5625,0,0,0,0,0
1.09,1.5625,0,0,0,0,0
1.091,1.5625,0,0,0,0,0
1.092,2.1875,0,0,0,0,0
1.093,2.1875,0,0,0,0,0
1.094,2.625,0,0,0,0,0
1.095,2.5,0,0,0,0,0
1.096,2.625,0,0,0,0,0
1.097,2.8125,0,0,0,0,0
1.098,4.0625,0,0,0,0,0
1.099,3.75,0,0,0,0,0
1.1,3.4375,0,0,0,0,0
1.101,2.8125,0,0,0,0,0
1.102,2.8125,0,0,0,0,0
1.103,2.5,0,0,0,0,0
1.104,2.5,0,0,0,0,0
1.105,3.4375,0,0,0,0,0
1.106,3.75,0,0,0,0,0
1.107,4.375,0,0,0,0,0
1.108,3.75,0,0,0,0,0
1.109,3.4375,0,0,0,0,0
1.11,3.9375,0,0,0,0,0
1.111,3.125,0,0,0,0,0
1.112,2.8125,0,0,0,0,0
1.113,3.125,0,0,0,0,0
1.114,2.9375,0,0,0,0,0
1.115,3.4375,0,0,0,0,0
1.116,3.4375,0,0,0,0,0
1.117,3.4375,0,0,0,0,0
1.118,3.75,0,0,0,0,0
1.119,3.75,0,0,0,0,0
1.12,3.5625,0,0,0,0,0
1.121,4.0625,0,0,0,0,0
1.122,4.0625,0,0,0,0,0
1.123,4.0625,0,0,0,0,0
1.124,3.9375,0,0,0,0,0
1.125,4.0625,0,0,0,0,0
1.126,4.375,0,0,0,0,0
1.127,4.375,0,0,0,0,0
1.128,4.6875,0,0,0,0,0
1.129,4.6875,0,0,0,0,0
1.13,3.9375,0,0,0,0,0
1.131,3.4375,0,0,0,0,0
1.132,3,0,0,0,0,0
1.133,3.4375,0,0,0,0,0
1.134,4.0625,0,0,0,0,0
1.135,4.6875,0,0,0,0,0
1.136,4.875,0,0,0,0,0
1.137,4.375,0,0,0,0,0
1.138,4.0625,0,0,0,0,0
1.139,4.375,0,0,0,0,0
1.14,4.375,0,0,0,0,0
1.141,4.375,0,0,0,0,0
1.142,4.0625,0,0,0,0,0
1.143,4.375,0,0,0,0,0
1.144,4.6875,0,0,0,0,0
1.145,4.375,0,0,0,0,0
1.146,4.8125,0,0,0,0,0
1.147,5.625,0,0,0,0,0
1.148,5.3125,0,0,0,0,0
1.149,5.3125,0,0,0,0,0
1.15,5,0,0,0,0,0
1.151,5,0,0,0,0,0
1.152,5.1875,0,0,0,0,0
1.153,4.6875,0,0,0,0,0
1.154,4.8125,0,0,0,0,0
1.155,4.375,0,0,0,0,0
1.156,4.6875,0,0,0,0,0
1.157,4.6875,0,0,0,0,0
1.158,5.4375,0,0,0,0,0
1.159,5.3125,0,0,0,0,0
1.16,5.1875,0,0,0,0,0
1.161,5.9375,0,0,0,0,0
1.162,6.0625,0,0,0,0,0
1.163,5.625,0,0,0,0,0
1.164,5,0,0,0,0,0
1.165,4.6875,0,0,0,0,0
1.166,4.8125,0,0,0,0,0
1.167,5.625,0,0,0,0,0
1.168,5.9375,0,0,0,0,0
1.169,6.25,0,0,0,0,0
1.17,6.25,0,0,0,0,0
1.171,6.25,0,0,0,0,0
1.172,5.9375,0,0,0,0,0
1.173,6.25,0,0,0,0,0
1.174,7.3125,0,0,0,0,0
1.175,8.4375,0,0,0,0,0
1.176,8,0,0,0,0,0
1.177,8.125,0,0,0,0,0
1.178,8.125,0,0,0,0,0
1.179,7.5,0,0,0,0,0
1.18,7.375,0,0,0,0,0
1.181,7.8125,0,0,0,0,0
1.182,7.5,0,0,0,0,0
1.183,7.5,0,0,0,0,0
1.184,7.375,0,0,0,0,0
1.185,7.5,0,0,0,0,0
1.186,7.5,0,0,0,0,0
1.187,8.125,0,0,0,0,0
1.188,8.3125,0,0,0,0,0
1.189,8.4375,0,0,0,0,0
1.19,9.375,0,0,0,0,0
1.191,9.0625,0,0,0,0,0
1.192,9.1875,0,0,0,0,0
1.193,9.375,0,0,0,0,0
1.194,10.125,0,0,0,0,0
1.195,9.6875,0,0,0,0,0
1.196,9.0625,0,0,0,0,0
1.197,9.375,0,0,0,0,0
1.198,10,0,0,0,0,0
1.199,10,0,0,0,0,0
1.2,10.313,0,0,0,1,0
1.201,11.25,0,0,0,0,0
1.202,11.563,0,0,0,0,0
1.203,11.25,0,0,0,0,0
1.204,11.438,0,0,0,0,0
1.205,10.938,0,0,0,0,0
1.206,11.25,0,0,0,0,0
1.207,10.625,0,0,0,0,0
1.208,10,0,0,0,0,0
1.209,10,0,0,0,0,0
1.21,10,0,0,0,0,0
1.211,9.6875,0,0,0,0,0
1.212,8.75,0,0,0,0,0
1.213,8.4375,0,0,0,0,0
1.214,7.8125,0,0,0,0,0
1.215,7.1875,0,0,0,0,0
1.216,7.8125,0,0,0,0,0
1.217,7.5,0,0,0,0,0
1.218,8.25,0,0,0,0,0
1.219,9.6875,0,0,0,0,0
1.22,9.0625,0,0,0,0,0
1.221,8.75,0,0,0,0,0
1.222,8.875,0,0,0,0,0
1.223,9.0625,0,0,0,0,0
1.224,8.125,0,0,0,0,0
1.225,8.125,0,0,0,0,0
1.226,8,0,0,0,0,0
1.227,8.125,0,0,0,0,0
1.228,8.25,0,0,0,0,0
1.229,8.4375,0,0,0,0,0
1.23,8.875,0,0,0,0,0
1.231,9.375,0,0,0,0,0
1.232,9.25,0,0,0,0,0
1.233,9.375,0,0,0,0,0
1.234,9.8125,0,0,0,0,0
1.235,9.6875,0,0,0,0,0
1.236,8.75,0,0,0,0,0
1.237,8.125,0,0,0,0,0
1.238,8.125,0,0,0,0,0
1.239,8.125,0,0,0,0,0
1.24,8.125,0,0,0,0,0
1.241,8.125,0,0,0,0,0
1.242,8.25,0,0,0,0,0
1.243,9.375,0,0,0,0,0
1.244,8.75,0,0,0,0,0
1.245,8.4375,0,0,0,0,0
1.246,7.8125,0,0,0,0,0
1.247,8.125,0,0,0,0,0
1.248,8.75,0,0,0,0,0
1.249,8.75,0,0,0,0,0
1.25,8,0,0,0,0,0
1.251,7.5,0,0,0,0,0
1.252,7.3125,0,0,0,0,0
1.253,7.8125,0,0,0,0,0
1.254,8.75,0,0,0,0,0
1.255,9.375,0,0,0,0,0
1.256,9.375,0,0,0,0,0
1.257,9.375,0,0,0,0,0
1.258,8.4375,0,0,0,0,0
1.259,7.8125,0,0,0,0,0
1.26,7.8125,0,0,0,0,0
1.261,7.1875,0,0,0,0,0
1.262,6.25,0,0,0,0,0
1.263,5.9375,0,0,0,0,0
1.264,7.625,0,0,0,0,0
1.265,7.1875,0,0,0,0,0
1.266,7,0,0,0,0,0
1.267,7.5,0,0,0,0,0
1.268,8.125,0,0,0,0,0
1.269,8.125,0,0,0,0,0
1.27,7.9375,0,0,0,0,0
1.271,7.8125,0,0,0,0,0
1.272,7.5,0,0,0,0,0
1.273,7.8125,0,0,0,0,0
1.274,8.125,0,0,0,0,0
1.275,7.8125,0,0,0,0,0
1.276,7.0625,0,0,0,0,0
1.277,6.875,0,0,0,0,0
1.278,6.6875,0,0,0,0,0
1.279,7.1875,0,0,0,0,0
1.28,6.875,0,0,0,0,0
1.281,7.1875,0,0,0,0,0
1.282,7.5,0,0,0,0,0
1.283,8.125,0,0,0,0,0
1.284,7.8125,0,0,0,0,0
1.285,7.8125,0,0,0,0,0
1.286,7.0625,0,0,0,0,0
1.287,6.875,0,0,0,0,0
1.288,7.1875,0,0,0,0,0
1.289,6.25,0,0,0,0,0
1.29,5.9375,0,0,0,0,0
1.291,5.9375,0,0,0,0,0
1.292,5.75,0,0,0,0,0
1.293,6.25,0,0,0,0,0
1.294,6.875,0,0,0,0,0
1.295,6.875,0,0,0,0,0
1.296,6.25,0,0,0,0,0
1.297,6.25,0,0,0,0,0
1.298,5.5,0,0,0,0,0
1.299,4.0625,0,0,0,0,0
1.3,3.75,0,0,0,0,0
1.301,4.0625,0,0,0,0,0
1.302,3.75,0,0,0,0,0
1.303,3.75,0,0,0,0,0
1.304,3.75,0,0,0,0,0
1.305,4.375,0,0,0,0,0
1.306,4.8125,0,0,0,0,0
1.307,5.625,0,0,0,0,0
1.308,5.625,0,0,0,0,0
1.309,5.3125,0,0,0,0,0
1.31,4.6875,0,0,0,0,0
1.311,3.75,0,0,0,0,0
1.312,3.625,0,0,0,0,0
1.313,3.4375,0,0,0,0,0
1.314,4.1875,0,0,0,0,0
1.315,4.0625,0,0,0,0,0
1.316,4.375,0,0,0,0,0
1.317,4.6875,0,0,0,0,0
1.318,5.625,0,0,0,0,0
1.319,5.9375,0,0,0,0,0
1.32,7,0,0,0,0,0
1.321,7.5,0,0,0,0,0
1.322,7.5,0,0,0,0,0
1.323,7.5,0,0,0,0,0
1.324,7.0625,0,0,0,0,0
1.325,5.9375,0,0,0,0,0
1.326,6.25,0,0,0,0,0
1.327,6.875,0,0,0,0,0
1.328,6.125,0,0,0,0,0
1.329,6.25,0,0,0,0,0
1.33,6.5625,0,0,0,0,0
1.331,5.9375,0,0,0,0,0
1.332,5.8125,0,0,0,0,1
1.333,5.3125,0,0,0,0,0
1.334,4.875,0,0,0,0,0
1.335,4.0625,0,0,0,0,0
1.336,4.25,0,0,0,0,0
1.337,4.0625,0,0,0,0,0
1.338,4.375,0,0,0,0,0
1.339,4.375,0,0,0,0,0
1.34,5,0,0,0,0,0
1.341,5.3125,0,0,0,0,0
1.342,3.9375,0,0,0,0,0
1.343,4.375,0,0,0,0,0
1.344,5.125,0,0,0,0,0
1.345,5,0,0,0,0,0
1.346,4.5,0,0,0,0,0
1.347,5,0,0,0,0,0
1.348,4.6875,0,0,0,0,0
1.349,5,0,0,0,0,0
1.35,4.375,0,0,0,0,0
1.351,4.6875,0,0,0,0,0
1.352,3.625,0,0,0,0,0
1.353,4.375,0,0,0,0,0
1.354,5.125,0,0,0,0,0
1.355,5.625,0,0,0,0,0
1.356,4.6875,0,0,0,0,0
1.357,4.6875,0,0,0,0,0
1.358,3,0,0,0,0,0
1.359,2.8125,0,0,0,0,0
1.36,3.4375,0,0,0,0,0
1.361,4.375,0,0,0,0,0
1.362,4.8125,0,0,0,0,0
1.363,6.25,0,0,0,0,0
1.364,6.25,0,0,0,0,0
1.365,6.5625,0,0,0,0,0
1.366,6.25,0,0,0,0,0
1.367,5.3125,0,0,0,0,0
1.368,4.5625,0,0,0,0,0
1.369,3.125,0,0,0,0,0
1.37,3.4375,0,0,0,0,0
1.371,3.4375,0,0,0,0,0
1.372,3.75,0,0,0,0,0
1.373,4.0625,0,0,0,0,0
1.374,3.875,0,0,0,0,0
1.375,4.0625,0,0,0,0,0
1.376,4.25,0,0,0,0,0
1.377,4.375,0,0,0,0,0
1.378,4.375,0,0,0,0,0
1.379,4.375,0,0,0,0,0
1.38,5.9375,0,0,0,0,0
1.381,6.875,0,0,0,0,0
1.382,7.0625,0,0,0,0,0
1.383,6.875,0,0,0,0,0
1.384,6.4375,0,0,0,0,0
1.385,5.9375,0,0,0,0,0
1.386,5.4375,0,0,0,0,0
1.387,5.625,0,0,0,0,0
1.388,6.375,0,0,0,0,0
1.389,6.25,0,0,0,0,0
1.39,6.375,0,0,0,0,0
1.391,7.1875,0,0,0,0,0
1.392,6.75,0,0,0,0,0
1.393,6.25,0,0,0,0,0
1.394,5.9375,0,0,0,0,0
1.395,6.5625,0,0,0,0,0
1.396,5.9375,0,0,0,0,0
1.397,5.9375,0,0,0,0,0
1.398,6.375,0,0,0,0,0
1.399,5.9375,0,0,0,0,0
1.4,5.5,0,0,0,0,0
1.401,5.625,0,0,0,0,0
1.402,5.1875,0,0,0,0,0
1.403,4.6875,0,0,0,0,0
1.404,3.75,0,0,0,0,0
1.405,3.125,0,0,0,0,0
1.406,2.5,0,0,0,0,0
1.407,2.8125,0,0,0,0,0
1.408,3.75,0,0,0,0,0
1.409,4.6875,0,0,0,0,0
1.41,3.875,0,0,0,0,0
1.411,4.375,0,0,0,0,0
1.412,4.6875,0,0,0,0,0
1.413,5,0,0,0,0,0
1.414,5.4375,0,0,0,0,0
1.415,5.625,0,0,0,0,0
1.416,5.5,0,0,0,0,0
1.417,5.625,0,0,0,0,0
1.418,5.625,0,0,0,0,0
1.419,5.3125,0,0,0,0,0
1.42,4.375,0,0,0,0,0
1.421,5,0,0,0,0,0
1.422,5,0,0,0,0,0
1.423,4.6875,0,0,0,0,0
1.424,4.5625,0,0,0,0,0
1.425,3.75,0,0,0,0,0
1.426,3.25,0,0,0,0,0
1.427,3.125,0,0,0,0,0
1.428,3.4375,0,0,0,0,0
1.429,3.125,0,0,0,0,0
1.43,4.0625,0,0,0,0,0
1.431,5.3125,0,0,0,0,0
1.432,5.75,0,0,0,0,0
1.433,5.9375,0,0,0,0,0
1.434,5.9375,0,0,0,0,0
1.435,5.625,0,0,0,0,0
1.436,6.6875,0,0,0,0,0
1.437,6.875,0,0,0,0,0
1.438,6.5625,0,0,0,0,0
1.439,5.9375,0,0,0,0,0
1.44,6.25,0,0,0,0,0
1.441,6.25,0,0,0,0,0
1.442,5.1875,0,0,0,0,0
1.443,4.6875,0,0,0,0,0
1.444,3.4375,0,0,0,0,0
1.445,2.5,0,0,0,0,0
1.446,2.1875,0,0,0,0,0
1.447,2.5,0,0,0,0,0
1.448,3.75,0,0,0,0,0
1.449,5,0,0,0,0,0
1.45,5,0,0,0,0,0
1.451,4.6875,0,0,0,0,0
1.452,4.0625,0,0,0,0,0
1.453,4.375,0,0,0,0,0
1.454,4.25,0,0,0,0,0
1.455,3.125,0,0,0,0,0
1.456,3,0,0,0,0,0
1.457,1.875,0,0,0,0,0
1.458,2.625,0,0,0,0,0
1.459,3.125,0,0,0,0,0
1.46,4.0625,0,0,0,0,0
1.461,4.0625,0,0,0,0,0
1.462,4.375,0,0,0,0,0
1.463,3.75,0,0,0,0,0
1.464,3.4375,0,0,0,0,0
1.465,3.4375,0,0,0,0,0
1.466,3.25,0,0,0,0,0
1.467,3.75,0,0,0,0,0
1.468,4.1875,0,0,0,0,0
1.469,5,0,0,0,0,0
1.47,4.875,0,0,0,0,0
1.471,4.375,0,0,0,0,0
1.472,3.125,0,0,0,0,0
1.473,2.1875,0,0,0,0,0
1.474,2.8125,0,0,0,0,0
1.475,2.8125,0,0,0,0,0
1.476,2.9375,0,0,0,0,0
1.477,3.125,0,0,0,0,0
1.478,3.5625,0,0,0,0,0
1.479,3.75,0,0,0,0,0
1.48,5,0,0,0,0,0
1.481,5.625,0,0,0,0,0
1.482,4.875,0,0,0,0,0
1.483,5.3125,0,0,0,0,0
1.484,4.5625,0,0,0,0,0
1.485,4.0625,0,0,0,0,0
1.486,5,0,0,0,0,0
1.487,5,0,0,0,0,0
1.488,5.3125,0,0,0,0,0
1.489,5.9375,0,0,0,0,0
1.49,5.5,0,0,0,0,0
1.491,4.6875,0,0,0,0,0
1.492,4.375,0,0,0,0,0
1.493,4.6875,0,0,0,0,0
1.494,5.125,0,0,0,0,0
1.495,5.3125,0,0,0,0,0
1.496,5.3125,0,0,0,0,0
1.497,5,0,0,0,0,0
1.498,5.3125,0,0,0,0,0
1.499,5.625,0,0,0,0,0
1.5,5,0,0,0,0,0
1.501,5.625,0,0,0,0,0
1.502,5.5,0,0,0,0,0
1.503,4.6875,0,0,0,0,0
1.504,4.875,0,0,0,0,0
1.505,4.6875,0,0,0,0,0
1.506,4.6875,0,0,0,0,0
1.507,4.375,0,0,0,0,0
1.508,4.5625,0,0,0,0,0
1.509,4.375,0,0,0,0,0
1.51,3.4375,0,0,0,0,0
1.511,3.125,0,0,0,0,0
1.512,3.4375,0,0,0,0,0
1.513,3.4375,0,0,0,0,0
1.514,3.5625,0,0,0,0,0
1.515,3.125,0,0,0,0,0
1.516,3,0,0,0,0,0
1.517,2.8125,0,0,0,0,0
1.518,3.25,0,0,0,0,0
1.519,3.75,0,0,0,0,0
1.52,4.8125,0,0,0,0,0
1.521,5.625,0,0,0,0,0
1.522,5.625,0,0,0,0,0
1.523,5.3125,0,0,0,0,0
1.524,4.0625,0,0,0,0,0
1.525,3.125,0,0,0,0,0
1.526,3.5625,0,0,0,0,0
1.527,3.75,0,0,0,0,0
1.528,3.5625,0,0,0,0,0
1.529,3.75,0,0,0,0,0
1.53,3.5625,0,0,0,0,0
1.531,3.75,0,0,0,0,0
1.532,3.625,0,0,0,0,0
1.533,3.75,0,0,0,0,0
1.534,4.0625,0,0,0,0,0
1.535,3.75,0,0,0,0,0
1.536,4.1875,0,0,0,0,0
1.537,4.375,0,0,0,0,0
1.538,4.375,0,0,0,0,0
1.539,3.75,0,0,0,0,0
1.54,4.0625,0,0,0,0,0
1.541,3.4375,0,0,0,0,0
1.542,3.75,0,0,0,0,0
1.543,3.75,0,0,0,0,0
1.544,3.625,0,0,0,0,0
1.545,3.4375,0,0,0,0,0
1.546,3.25,0,0,0,0,0
1.547,4.0625,0,0,0,0,0
1.548,3.125,0,0,0,0,0
1.549,3.75,0,0,0,0,0
1.55,4.5,0,0,0,0,0
1.551,4.375,0,0,0,0,0
1.552,4.25,0,0,0,0,0
1.553,4.375,0,0,0,0,0
1.554,4.5,0,0,0,0,0
1.555,4.375,0,0,0,0,0
1.556,5,0,0,0,0,0
1.557,5.3125,0,0,0,0,0
1.558,6.25,0,0,0,0,0
1.559,5.9375,0,0,0,0,0
1.56,5.5,0,0,0,0,0
1.561,5.3125,0,0,0,0,0
1.562,5.625,0,0,0,0,0
1.563,5,0,0,0,0,0
1.564,4.375,0,0,0,0,0
1.565,4.0625,0,0,0,0,0
1.566,3.4375,0,0,0,0,0
1.567,3.75,0,0,0,0,0
1.568,4.0625,0,0,0,0,0
1.569,4.0625,0,0,0,0,0
1.57,4.0625,0,0,0,0,0
1.571,4.6875,0,0,0,0,0
1.572,4.5625,0,0,0,0,0
1.573,4.375,0,0,0,0,0
1.574,4.0625,0,0,0,0,0
1.575,3.4375,0,0,0,0,0
1.576,2.8125,0,0,0,0,0
1.577,2.5,0,0,0,0,0
1.578,2.8125,0,0,0,0,0
1.579,2.8125,0,0,0,0,0
1.58,2.8125,0,0,0,0,0
1.581,3.4375,0,0,0,0,0
1.582,3.875,0,0,0,0,0
1.583,4.375,0,0,0,0,0
1.584,4.375,0,0,0,0,0
1.585,3.75,0,0,0,0,0
1.586,3.875,0,0,0,0,0
1.587,4.375,0,0,0,0,0
1.588,4.125,0,0,0,0,0
1.589,3.75,0,0,0,0,0
1.59,3.9375,0,0,0,0,0
1.591,3.75,0,0,0,0,0
1.592,3.875,0,0,0,0,0
1.593,4.0625,0,0,0,0,0
1.594,4.6875,0,0,0,0,0
1.595,5.3125,0,0,0,0,0
1.596,5.1875,0,0,0,0,0
1.597,5.3125,0,0,0,0,0
1.598,5.4375,0,0,0,0,0
1.599,5.3125,0,0,0,0,0
1.6,3.125,0,0,0,0,0
1.601,1.875,0,0,0,0,0
1.602,2.8125,0,0,0,0,0
1.603,3.125,0,0,0,0,0
1.604,3.125,0,0,0,0,0
1.605,3.75,0,0,0,0,0
1.606,3.4375,0,0,0,0,0
1.607,3.75,0,0,0,0,0
1.608,3.875,0,0,0,0,0
1.609,4.375,0,0,0,0,0
1.61,4.5625,0,0,0,0,0
1.611,4.0625,0,0,0,0,0
1.612,4.0625,0,0,0,0,0
1.613,4.0625,0,0,0,0,0
1.614,4.0625,0,0,0,0,0
1.615,4.0625,0,0,0,0,0
1.616,3.9375,0,0,0,0,0
1.617,3.75,0,0,0,0,0
1.618,3.3125,0,0,0,0,0
1.619,3.125,0,0,0,0,0
1.62,2.5,0,0,0,0,0
1.621,2.5,0,0,0,0,0
1.622,2.375,0,0,0,0,0
1.623,2.5,0,0,0,0,0
1.624,2.8125,0,0,0,0,0
1.625,3.125,0,0,0,0,0
1.626,3.5625,0,0,0,0,0
1.627,4.375,0,0,0,0,0
1.628,4.1875,0,0,0,0,0
1.629,3.75,0,0,0,0,0
1.63,4.0625,0,0,0,0,0
1.631,4.0625,0,0,0,0,0
1.632,2.8125,0,0,0,0,0
1.633,2.8125,0,0,0,0,0
1.634,3.75,0,0,0,0,0
1.635,4.0625,0,0,0,0,0
1.636,5.9375,0,0,0,0,0
1.637,8.125,0,0,0,0,0
1.638,7.8125,0,0,0,0,0
1.639,7.1875,0,0,0,0,0
1.64,6.125,0,0,0,0,0
1.641,5.3125,0,0,0,0,0
1.642,3,0,0,0,0,0
1.643,1.25,0,0,0,0,0
1.644,2.3125,0,0,0,0,0
1.645,3.4375,0,0,0,0,0
1.646,4.8125,0,0,0,0,0
1.647,5.9375,0,0,0,0,0
1.648,5.75,0,0,0,0,0
1.649,5.9375,0,0,0,0,0
1.65,4.6875,0,0,0,0,0
1.651,3.75,0,0,0,0,0
1.652,3.75,0,0,0,0,0
1.653,3.75,0,0,0,0,0
1.654,4.25,0,0,0,0,0
1.655,4.0625,0,0,0,0,0
1.656,4.375,0,0,0,0,0
1.657,3.4375,0,0,0,0,0
1.658,3.9375,0,0,0,0,0
1.659,3.75,0,0,0,0,0
1.66,3.875,0,0,0,0,0
1.661,4.375,0,0,0,0,0
1.662,4.5625,0,0,0,0,0
1.663,4.6875,0,0,0,0,0
1.664,4.6875,0,0,0,0,0
1.665,4.375,0,0,0,0,0
1.666,4.0625,0,0,0,0,0
1.667,4.0625,0,0,0,0,0
1.668,3.4375,0,0,0,0,0
1.669,3.125,0,0,0,0,0
1.67,4.0625,0,0,0,0,0
1.671,4.6875,0,0,0,0,0
1.672,5.125,0,0,0,0,0
1.673,5,0,0,0,0,0
1.674,4.375,0,0,0,0,0
1.675,4.375,0,0,0,0,0
1.676,3.3125,0,0,0,0,0
1.677,2.5,0,0,0,0,0
1.678,2.6875,0,0,0,0,0
1.679,2.5,0,0,0,0,0
1.68,4.1875,0,0,0,0,0
1.681,5,0,0,0,0,0
1.682,5.9375,0,0,0,0,0
1.683,6.5625,0,0,0,0,0
1.684,6.125,0,0,0,0,0
1.685,5.625,0,0,0,0,0
1.686,5,0,0,0,0,0
1.687,5.3125,0,0,0,0,0
1.688,5.4375,0,0,0,0,0
1.689,5.3125,0,0,0,0,0
1.69,4.0625,0,0,0,0,0
1.691,3.4375,0,0,0,0,0
1.692,3.4375,0,0,0,0,0
1.693,3.75,0,0,0,0,0
1.694,3.75,0,0,0,0,0
1.695,3.75,0,0,0,0,0
1.696,4.0625,0,0,0,0,0
1.697,4.0625,0,0,0,0,0
1.698,3.125,0,0,0,0,0
1.699,2.5,0,0,0,0,0
1.7,2.9375,0,0,0,0,0
1.701,3.75,0,0,0,0,0
1.702,3.875,0,0,0,0,0
1.703,3.75,0,0,0,0,0
1.704,2.375,0,0,0,0,0
1.705,1.875,0,0,0,0,0
1.706,2.5,0,0,0,0,0
1.707,3.125,0,0,0,0,0
1.708,3.4375,0,0,0,0,0
1.709,4.375,0,0,0,0,0
1.71,5.125,0,0,0,0,0
1.711,4.6875,0,0,0,0,0
1.712,5.9375,0,0,0,0,0
1.713,6.25,0,0,0,0,0
1.714,6.0625,0,0,0,0,0
1.715,6.25,0,0,0,0,0
1.716,5.625,0,0,0,0,0
1.717,5,0,0,0,0,0
1.718,5.625,0,0,0,0,0
1.719,5.3125,0,0,0,0,0
1.72,5,0,0,0,0,0
1.721,5.3125,0,0,0,0,0
1.722,6.0625,0,0,0,0,0
1.723,6.5625,0,0,0,0,0
1.724,5.625,0,0,0,0,0
1.725,6.25,0,0,0,0,0
1.726,6.75,0,0,0,0,0
1.727,6.25,0,0,0,0,0
1.728,5.9375,0,0,0,0,0
1.729,6.5625,0,0,0,0,0
1.73,6.875,0,0,0,0,0
1.731,6.875,0,0,0,0,0
1.732,7.8125,0,0,0,0,0
1.733,8.75,0,0,0,0,0
1.734,8.75,0,0,0,0,0
1.735,8.4375,0,0,0,0,0
1.736,6.75,0,0,0,0,0
1.737,5.625,0,0,0,0,0
1.738,5.625,0,0,0,0,0
1.739,4.6875,0,0,0,0,0
1.74,4.8125,0,0,0,0,0
1.741,4.375,0,0,0,0,0
1.742,4.8125,0,0,0,0,0
1.743,4.6875,0,0,0,0,0
1.744,5.125,0,0,0,0,0
1.745,5.625,0,0,0,0,0
1.746,5.75,0,0,0,0,0
1.747,5.9375,0,0,0,0,0
1.748,5.9375,0,0,0,0,0
1.749,6.25,0,0,0,0,0
1.75,6.75,0,0,0,0,0
1.751,6.5625,0,0,0,0,0
1.752,5.8125,0,0,0,0,0
1.753,5.9375,0,0,0,0,0
1.754,6.375,0,0,0,0,0
1.755,6.5625,0,0,0,0,0
1.756,6.4375,0,0,0,0,0
1.757,6.25,0,0,0,0,0
1.758,7,0,0,0,0,0
1.759,7.1875,0,0,0,0,0
1.76,7.9375,0,0,0,0,0
1.761,8.125,0,0,0,0,0
1.762,7.1875,0,0,0,0,0
1.763,7.5,0,0,0,0,0
1.764,8,0,0,0,0,0
1.765,7.8125,0,0,0,0,0
1.766,7.1875,0,0,0,0,0
1.767,7.5,0,0,0,0,0
1.768,7.5,0,0,0,0,0
1.769,6.875,0,0,0,0,0
1.77,6.5625,0,0,0,0,0
1.771,6.5625,0,0,0,0,0
1.772,6.875,0,0,0,0,0
1.773,6.875,0,0,0,0,0
1.774,6.5625,0,0,0,0,0
1.775,6.875,0,0,0,0,0
1.776,6.4375,0,0,0,0,0
1.777,5.9375,0,0,0,0,0
1.778,5.75,0,0,0,0,0
1.779,5.625,0,0,0,0,0
1.78,5.125,0,0,0,0,0
1.781,5.3125,0,0,0,0,0
1.782,5.3125,0,0,0,0,0
1.783,5,0,0,0,0,0
1.784,4.25,0,0,0,0,0
1.785,3.75,0,0,0,0,0
1.786,3.625,0,0,0,0,0
1.787,3.75,0,0,0,0,0
1.788,4.5,0,0,0,0,0
1.789,5.3125,0,0,0,0,0
1.79,5.75,0,0,0,0,0
1.791,5.9375,0,0,0,0,0
1.792,4.6875,0,0,0,0,0
1.793,4.375,0,0,0,0,0
1.794,4.8125,0,0,0,0,0
1.795,4.6875,0,0,0,0,0
1.796,5.125,0,0,0,0,0
1.797,5.625,0,0,0,0,0
1.798,5.9375,0,0,0,0,0
1.799,5.9375,0,0,0,0,0
1.8,5.75,0,0,0,0,0
1.801,5.625,0,0,0,0,0
1.802,5.625,0,0,0,0,0
1.803,6.5625,0,0,0,0,0
1.804,6.25,0,0,0,0,0
1.805,6.25,0,0,0,0,0
1.806,6.125,0,0,0,0,0
1.807,5,0,0,0,0,0
1.808,4.6875,0,0,0,0,0
1.809,4.375,0,0,0,0,0
1.81,4.6875,0,0,0,0,0
1.811,5,0,0,0,0,0
1.812,5.1875,0,0,0,0,0
1.813,4.6875,0,0,0,0,0
1.814,4.0625,0,0,0,0,0
1.815,3.75,0,0,0,0,0
1.816,4.0625,0,0,0,0,0
1.817,3.75,0,0,0,0,0
1.818,4.25,0,0,0,0,0
1.819,4.0625,0,0,0,0,0
1.82,3.875,0,0,0,0,0
1.821,5,0,0,0,0,0
1.822,4.5625,0,0,0,0,0
1.823,4.375,0,0,0,0,0
1.824,3.5625,0,0,0,0,0
1.825,3.75,0,0,0,0,0
1.826,3.75,0,0,0,0,0
1.827,4.0625,0,0,0,0,0
1.828,4.0625,0,0,0,0,0
1.829,3.75,0,0,0,0,0
1.83,4.1875,0,0,0,0,0
1.831,3.75,0,0,0,0,0
1.832,4.6875,0,0,0,0,0
1.833,6.25,0,0,0,0,0
1.834,6.375,0,0,0,0,0
1.835,6.5625,0,0,0,0,0
1.836,5.625,0,0,0,0,0
1.837,5.625,0,0,0,0,0
1.838,5.625,0,0,0,0,0
1.839,4.6875,0,0,0,0,0
1.84,3.4375,0,0,0,0,0
1.841,1.875,0,0,0,0,0
1.842,2.1875,0,0,0,0,0
1.843,2.1875,0,0,0,0,0
1.844,1.5625,0,0,0,0,0
1.845,1.5625,0,0,0,0,0
1.846,1.4375,0,0,0,0,0
1.847,1.25,0,0,0,0,0
1.848,0.9375,0,0,0,0,0
1.849,1.25,0,0,0,0,0
1.85,1.5625,0,0,0,0,0
1.851,1.5625,0,0,0,0,0
1.852,2.3125,0,0,0,0,0
1.853,2.8125,0,0,0,0,0
1.854,2.625,0,0,0,0,0
1.855,2.8125,0,0,0,0,0
1.856,2.6875,0,0,0,0,0
1.857,2.1875,0,0,0,0,0
1.858,2.9375,0,0,0,0,0
1.859,2.5,0,0,0,0,0
1.86,2.8125,0,0,0,0,0
1.861,2.8125,0,0,0,0,0
1.862,2.5,0,0,0,0,0
1.863,3.125,0,0,0,0,0
1.864,2.375,0,0,0,0,0
1.865,1.5625,0,0,0,0,0
1.866,2.8125,0,0,0,0,0
1.867,3.4375,0,0,0,0,0
1.868,3.25,0,0,0,0,0
1.869,3.4375,0,0,0,0,0
1.87,4.0625,0,0,0,0,0
1.871,4.6875,0,0,0,0,0
1.872,4.375,0,0,0,0,0
1.873,4.375,0,0,0,0,0
1.874,4.0625,0,0,0,0,0
1.875,3.125,0,0,0,0,0
1.876,2.625,0,0,0,0,0
1.877,2.8125,0,0,0,0,0
1.878,3,0,0,0,0,0
1.879,3.125,0,0,0,0,0
1.88,3.4375,0,0,0,0,0
1.881,3.4375,0,0,0,0,0
1.882,3.4375,0,0,0,0,0
1.883,3.4375,0,0,0,0,0
1.884,2.5,0,0,0,0,0
1.885,1.875,0,0,0,0,0
1.886,1.375,0,0,0,0,0
1.887,1.875,0,0,0,0,0
1.888,2,0,0,0,0,0
1.889,2.8125,0,0,0,0,0
1.89,3,0,0,0,0,0
1.891,2.5,0,0,0,0,0
1.892,2.0625,0,0,0,0,0
1.893,1.25,0,0,0,0,0
1.894,1.875,0,0,0,0,0
1.895,2.1875,0,0,0,0,0
1.896,2.9375,0,0,0,0,0
1.897,3.4375,0,0,0,0,0
1.898,3.625,0,0,0,0,0
1.899,2.8125,0,0,0,0,0
1.9,3.125,0,0,0,0,0
1.901,3.4375,0,0,0,0,0
1.902,3.4375,0,0,0,0,0
1.903,3.75,0,0,0,0,0
1.904,3.4375,0,0,0,0,0
1.905,3.4375,0,0,0,0,0
1.906,3,0,0,0,0,0
1.907,2.8125,0,0,0,0,0
1.908,2.3125,0,0,0,0,0
1.909,2.8125,0,0,0,0,0
1.91,4.375,1,0,0,0,0
1.911,6.25,0,0,0,0,0
1.912,6.5625,0,0,0,0,0
1.913,6.25,0,0,0,0,0
1.914,6.0625,0,0,0,0,0
1.915,6.875,0,0,0,0,0
1.916,5.8125,0,0,0,0,0
1.917,6.25,0,0,0,0,0
1.918,7.9375,0,0,0,0,0
1.919,8.75,0,0,0,0,0
1.92,9.8125,0,0,0,0,0
1.921,11.25,0,0,0,0,0
1.922,11.563,0,0,0,0,0
1.923,11.875,0,0,0,0,0
1.924,12.063,0,0,0,0,0
1.925,12.813,0,0,0,0,0
1.926,12.813,0,0,0,0,0
1.927,12.5,0,0,0,0,0
1.928,11.438,0,0,0,0,0
1.929,10.313,0,0,0,0,0
1.93,10.5,0,0,0,0,0
1.931,11.25,0,0,0,0,0
1.932,12.313,0,0,0,0,0
1.933,13.438,0,0,0,0,0
1.934,14.5,0,0,0,0,0
1.935,15.938,0,0,0,0,0
1.936,17.063,0,0,0,0,0
1.937,18.125,0,0,0,0,0
1.938,19.063,0,0,0,0,0
1.939,20,0,0,0,0,0
1.94,21.563,0,0,0,0,0
1.941,22.5,0,0,0,0,0
1.942,23,0,0,0,0,0
1.943,24.688,0,0,0,0,0
1.944,25.625,0,0,0,0,0
1.945,26.25,0,0,0,0,0
1.946,27.188,0,0,0,0,0
1.947,28.75,0,0,0,0,0
1.948,28.75,0,0,0,0,0
1.949,29.063,0,0,0,0,0
1.95,29.875,0,0,0,0,0
1.951,30,0,0,0,0,0
1.952,30.313,0,0,0,0,0
1.953,30,0,0,0,0,0
1.954,30.75,0,0,0,0,0
1.955,31.25,0,0,0,0,0
1.956,31.375,0,1,0,0,0
1.957,30.938,0,0,0,0,0
1.958,29.375,0,0,0,0,0
1.959,26.25,0,0,0,0,0
1.96,22.063,0,0,0,0,0
1.961,17.813,0,0,0,0,0
1.962,15.313,0,0,0,0,0
1.963,12.5,0,0,0,0,0
1.964,8.9375,0,0,0,0,0
1.965,6.25,0,0,0,0,0
1.966,3.875,0,0,0,0,0
1.967,0.625,0,0,0,0,0
1.968,-1.5625,0,0,0,0,0
1.969,-3.4375,0,0,0,0,0
1.97,-6.375,0,0,0,0,0
1.971,-8.125,0,0,0,0,0
1.972,-8.125,0,0,0,0,0
1.973,-8.4375,0,0,0,0,0
1.974,-9.0625,0,0,0,0,0
1.975,-9.375,0,0,0,0,0
1.976,-8.125,0,0,0,0,0
1.977,-7.1875,0,0,0,0,0
1.978,-7.1875,0,0,0,0,0
1.979,-7.5,0,0,0,0,0
1.98,-6.6875,0,0,0,0,0
1.981,-5,0,0,0,0,0
1.982,-4.1875,0,0,0,0,0
1.983,-3.4375,0,0,0,0,0
1.984,-2.5,0,0,0,0,0
1.985,-2.1875,0,0,0,0,0
1.986,-1.25,0,0,0,0,0
1.987,-0.3125,0,0,0,0,0
1.988,1.6875,0,0,1,0,0
1.989,3.4375,0,0,0,0,0
1.99,4.0625,0,0,0,0,0
1.991,3.75,0,0,0,0,0
1.992,3.9375,0,0,0,0,0
1.993,3.4375,0,0,0,0,0
1.994,3.75,0,0,0,0,0
1.995,3.4375,0,0,0,0,0
1.996,2.5,0,0,0,0,0
1.997,2.1875,0,0,0,0,0
1.998,2.1875,0,0,0,0,0
1.999,1.5625,0,0,0,0,0
2,1.375,0,0,0,0,0
2.001,2.1875,0,0,0,0,0
2.002,2.1875,0,0,0,0,0
2.003,2.5,0,0,0,0,0
2.004,2.5,0,0,0,0,0
2.005,2.5,0,0,0,0,0
2.006,2.1875,0,0,0,0,0
2.007,2.1875,0,0,0,0,0
2.008,2.1875,0,0,0,0,0
2.009,2.5,0,0,0,0,0
2.01,2.1875,0,0,0,0,0
2.011,1.875,0,0,0,0,0
2.012,2.625,0,0,0,0,0
2.013,2.8125,0,0,0,0,0
2.014,2.8125,0,0,0,0,0
2.015,3.125,0,0,0,0,0
2.016,3.3125,0,0,0,0,0
2.017,3.125,0,0,0,0,0
2.018,3.875,0,0,0,0,0
2.019,4.375,0,0,0,0,0
2.02,5.3125,0,0,0,0,0
2.021,5.3125,0,0,0,0,0
2.022,6.6875,0,0,0,0,0
2.023,7.8125,0,0,0,0,0
2.024,5.625,0,0,0,0,0
2.025,4.375,0,0,0,0,0
2.026,4.6875,0,0,0,0,0
2.027,5.3125,0,0,0,0,0
2.028,4.875,0,0,0,0,0
2.029,4.0625,0,0,0,0,0
2.03,2.375,0,0,0,0,0
2.031,0,0,0,0,0,0
2.032,-0.4375,0,0,0,0,0
2.033,-0.625,0,0,0,0,0
2.034,0,0,0,0,0,0
2.035,-0.625,0,0,0,0,0
2.036,-0.625,0,0,0,0,0
2.037,-0.9375,0,0,0,0,0
2.038,-0.8125,0,0,0,0,0
2.039,-0.9375,0,0,0,0,0
2.04,-0.625,0,0,0,0,0
2.041,-0.3125,0,0,0,0,0
2.042,-0.4375,0,0,0,0,0
2.043,-0.625,0,0,0,0,0
2.044,-0.625,0,0,0,0,0
2.045,0,0,0,0,0,0
2.046,0.125,0,0,0,0,0
2.047,0.625,0,0,0,0,0
2.048,0.9375,0,0,0,0,0
2.049,1.25,0,0,0,0,0
2.05,1.75,0,0,0,0,0
2.051,1.875,0,0,0,0,0
2.052,2.1875,0,0,0,0,0
2.053,2.1875,0,0,0,0,0
2.054,2,0,0,0,0,0
2.055,1.875,0,0,0,0,0
2.056,1.4375,0,0,0,0,0
2.057,0.9375,0,0,0,0,0
2.058,0.9375,0,0,0,0,0
2.059,0.3125,0,0,0,0,0
2.06,0.5,0,0,0,0,0
2.061,0.625,0,0,0,0,0
2.062,1.25,0,0,0,0,0
2.063,1.25,0,0,0,0,0
2.064,0.3125,0,0,0,0,0
2.065,0.3125,0,0,0,0,0
2.066,0.75,0,0,0,0,0
2.067,0.9375,0,0,0,0,0
2.068,2.1875,0,0,0,0,0
2.069,2.8125,0,0,0,0,0
2.07,2.625,0,0,0,0,0
2.071,3.75,0,0,0,0,0
2.072,3.4375,0,0,0,0,0
2.073,3.125,0,0,0,0,0
2.074,3.25,0,0,0,0,0
2.075,4.0625,0,0,0,0,0
2.076,5,0,0,0,0,0
2.077,5.3125,0,0,0,0,0
2.078,7,0,0,0,0,0
2.079,7.8125,0,0,0,0,0
2.08,6.5625,0,0,0,0,0
2.081,5.625,0,0,0,0,0
2.082,3.625,0,0,0,0,0
2.083,0.9375,0,0,0,0,0
2.084,-1.0625,0,0,0,0,0
2.085,-2.5,0,0,0,0,0
2.086,-2.1875,0,0,0,0,0
2.087,-1.5625,0,0,0,0,0
2.088,-1.875,0,0,0,0,0
2.089,-0.9375,0,0,0,0,0
2.09,-0.75,0,0,0,0,0
2.091,-0.9375,0,0,0,0,0
2.092,-0.625,0,0,0,0,0
2.093,-0.625,0,0,0,0,0
2.094,0.625,0,0,0,0,0
2.095,0.9375,0,0,0,0,0
2.096,1.375,0,0,0,0,0
2.097,3.125,0,0,0,0,0
2.098,3.125,0,0,0,0,0
2.099,2.8125,0,0,0,0,0
2.1,2.1875,0,0,0,0,0
2.101,1.25,0,0,0,0,0
2.102,1.125,0,0,0,0,0
2.103,0.9375,0,0,0,0,0
2.104,0.9375,0,0,0,0,0
2.105,1.5625,0,0,0,0,0
2.106,1.125,0,0,0,0,0
2.107,1.25,0,0,0,0,0
2.108,2.625,0,0,0,0,0
2.109,3.125,0,0,0,0,0
2.11,3.125,0,0,0,0,0
2.111,3.125,0,0,0,0,0
2.112,3.125,0,0,0,0,0
2.113,3.125,0,0,0,0,0
2.114,3.875,0,0,0,0,0
2.115,3.125,0,0,0,0,0
2.116,2.5,0,0,0,0,0
2.117,2.8125,0,0,0,0,0
2.118,3,0,0,0,0,0
2.119,3.125,0,0,0,0,0
2.12,3.5625,0,0,0,0,0
2.121,3.125,0,0,0,0,0
2.122,2.5,0,0,0,0,0
2.123,2.1875,0,0,0,0,0
2.124,2.6875,0,0,0,0,0
2.125,2.5,0,0,0,0,0
2.126,2.1875,0,0,0,0,0
2.127,1.875,0,0,0,0,0
2.128,2.1875,0,0,0,0,0
2.129,2.1875,0,0,0,0,0
2.13,1.75,0,0,0,0,0
2.131,1.5625,0,0,0,0,0
2.132,1.125,0,0,0,0,0
2.133,0.625,0,0,0,0,0
2.134,0.5,0,0,0,0,0
2.135,-0.3125,0,0,0,0,0
2.136,0.1875,0,0,0,0,0
2.137,0.3125,0,0,0,0,0
2.138,0.625,0,0,0,0,0
2.139,1.5625,0,0,0,0,0
2.14,1.375,0,0,0,0,0
2.141,1.25,0,0,0,0,0
2.142,1.5625,0,0,0,0,0
2.143,1.5625,0,0,0,0,0
2.144,1.125,0,0,0,0,0
2.145,0.9375,0,0,0,0,0
2.146,1.4375,0,0,0,0,0
2.147,1.5625,0,0,0,0,0
2.148,1.375,0,0,0,0,0
2.149,1.5625,0,0,0,0,0
2.15,1.4375,0,0,0,0,0
2.151,0.9375,0,0,0,0,0
2.152,1.25,0,0,0,0,0
2.153,1.25,0,0,0,0,0
2.154,1.875,0,0,0,0,0
2.155,2.5,0,0,0,0,0
2.156,3,0,0,0,0,0
2.157,2.8125,0,0,0,0,0
2.158,3.25,0,0,0,0,0
2.159,3.125,0,0,0,0,0
2.16,3.4375,0,0,0,0,0
2.161,3.75,0,0,0,0,0
2.162,5,0,0,0,0,0
2.163,4.6875,0,0,0,0,0
2.164,4.5,0,0,0,0,0
2.165,4.0625,0,0,0,0,0
2.166,4.6875,0,0,0,0,0
2.167,5,0,0,0,0,0
2.168,4.5625,0,0,0,0,0
2.169,5,0,0,0,0,0
2.17,5.125,0,0,0,0,0
2.171,5.625,0,0,0,0,0
2.172,5.4375,0,0,0,0,0
2.173,5.625,0,0,0,0,0
2.174,6.4375,0,0,0,0,0
2.175,5.9375,0,0,0,0,0
2.176,3.9375,0,0,0,0,0
2.177,2.5,0,0,0,0,0
2.178,1.75,0,0,0,0,0
2.179,1.5625,0,0,0,0,0
2.18,1.4375,0,0,0,0,0
2.181,1.25,0,0,0,0,0
2.182,2,0,0,0,0,0
2.183,2.5,0,0,0,0,0
2.184,1.75,0,0,0,0,0
2.185,1.5625,0,0,0,0,0
2.186,1.6875,0,0,0,0,0
2.187,1.875,0,0,0,0,0
2.188,2.5,0,0,0,0,0
2.189,3.4375,0,0,0,0,0
2.19,4.375,0,0,0,0,0
2.191,5,0,0,0,0,0
2.192,5,0,0,0,0,0
2.193,4.6875,0,0,0,0,0
2.194,4.25,0,0,0,0,0
2.195,4.0625,0,0,0,0,0
2.196,3.625,0,0,0,0,0
2.197,4.0625,0,0,0,0,0
2.198,3.9375,0,0,0,0,0
2.199,3.75,0,0,0,0,0
2.2,4.1875,0,0,0,0,0
2.201,4.0625,0,0,0,0,0
2.202,4.0625,0,0,0,0,0
2.203,4.6875,0,0,0,0,0
2.204,5,0,0,0,0,0
2.205,5.3125,0,0,0,0,0
2.206,5,0,0,0,0,0
2.207,5.3125,0,0,0,0,0
2.208,5.3125,0,0,0,0,0
2.209,4.6875,0,0,0,0,0
2.21,3.625,0,0,0,0,0
2.211,2.8125,0,0,0,0,0
2.212,3.4375,0,0,0,0,0
2.213,4.375,0,0,0,0,0
2.214,4.375,0,0,0,0,0
2.215,4.6875,0,0,0,0,0
2.216,5.3125,0,0,0,0,0
2.217,5.3125,0,0,0,0,0
2.218,5.75,0,0,0,0,0
2.219,5.625,0,0,0,0,0
2.22,6.375,0,0,0,0,0
2.221,6.875,0,0,0,0,0
2.222,7.5,0,0,0,0,0
2.223,7.1875,0,0,0,0,0
2.224,6.5625,0,0,0,0,0
2.225,6.875,0,0,0,0,0
2.226,7,0,0,0,0,0
2.227,6.5625,0,0,0,0,0
2.228,5,0,0,0,0,0
2.229,3.75,0,0,0,0,0
2.23,3,0,0,0,0,0
2.231,2.8125,0,0,0,0,0
2.232,3.875,0,0,0,0,0
2.233,5,0,0,0,0,0
2.234,5.75,0,0,0,0,0
2.235,6.5625,0,0,0,0,0
2.236,5.8125,0,0,0,0,0
2.237,5.625,0,0,0,0,0
2.238,5.8125,0,0,0,0,0
2.239,5.9375,0,0,0,0,0
2.24,6.375,0,0,0,0,0
2.241,7.5,0,0,0,0,0
2.242,7.8125,0,0,0,0,0
2.243,7.5,0,0,0,0,0
2.244,7.5,0,0,0,0,0
2.245,8.125,0,0,0,0,0
2.246,7.5,0,0,0,0,0
2.247,7.1875,0,0,0,0,0
2.248,7.0625,0,0,0,0,0
2.249,7.1875,0,0,0,0,0
2.25,6.4375,0,0,0,0,0
2.251,6.25,0,0,0,0,0
2.252,6.125,0,0,0,0,0
2.253,5.9375,0,0,0,0,0
2.254,6.6875,0,0,0,0,0
2.255,6.25,0,0,0,0,0
2.256,6.125,0,0,0,0,0
2.257,5.9375,0,0,0,0,0
2.258,7,0,0,0,0,0
2.259,6.875,0,0,0,0,0
2.26,7,0,0,0,0,0
2.261,8.125,0,0,0,0,0
2.262,9.0625,0,0,0,0,0
2.263,9.375,0,0,0,0,0
2.264,9.0625,0,0,0,0,0
2.265,9.375,0,0,0,0,0
2.266,9.5625,0,0,0,0,0
2.267,9.0625,0,0,0,0,0
2.268,10,0,0,0,0,0
2.269,10.313,0,0,0,0,0
2.27,11.063,0,0,0,0,0
2.271,10.938,0,0,0,0,0
2.272,10.438,0,0,0,0,0
2.273,10.625,0,0,0,0,0
2.274,10.313,0,0,0,0,0
2.275,9.6875,0,0,0,0,0
2.276,8.75,0,0,0,0,0
2.277,8.4375,0,0,0,0,0
2.278,8.25,0,0,0,1,0
2.279,8.125,0,0,0,0,0
2.28,8.875,0,0,0,0,0
2.281,8.75,0,0,0,0,0
2.282,8.4375,0,0,0,0,0
2.283,8.75,0,0,0,0,0
2.284,7.8125,0,0,0,0,0
2.285,7.1875,0,0,0,0,0
2.286,6.75,0,0,0,0,0
2.287,6.25,0,0,0,0,0
2.288,6.375,0,0,0,0,0
2.289,7.5,0,0,0,0,0
2.29,7.8125,0,0,0,0,0
2.291,8.4375,0,0,0,0,0
2.292,8.5625,0,0,0,0,0
2.293,8.75,0,0,0,0,0
2.294,8.5625,0,0,0,0,0
2.295,8.4375,0,0,0,0,0
2.296,8.4375,0,0,0,0,0
2.297,8.75,0,0,0,0,0
2.298,9.0625,0,0,0,0,0
2.299,8.75,0,0,0,0,0
2.3,8.3125,0,0,0,0,0
2.301,8.125,0,0,0,0,0
2.302,7.8125,0,0,0,0,0
2.303,7.5,0,0,0,0,0
2.304,7.3125,0,0,0,0,0
2.305,7.1875,0,0,0,0,0
2.306,7.9375,0,0,0,0,0
2.307,9.6875,0,0,0,0,0
2.308,9.5,0,0,0,0,0
2.309,9.6875,0,0,0,0,0
2.31,9.25,0,0,0,0,0
2.311,9.6875,0,0,0,0,0
2.312,10,0,0,0,0,0
2.313,9.6875,0,0,0,0,0
2.314,9.375,0,0,0,0,0
2.315,9.375,0,0,0,0,0
2.316,8.3125,0,0,0,0,0
2.317,7.8125,0,0,0,0,0
2.318,7.6875,0,0,0,0,0
2.319,7.1875,0,0,0,0,0
2.32,7.0625,0,0,0,0,0
2.321,6.875,0,0,0,0,0
2.322,6.6875,0,0,0,0,0
2.323,6.875,0,0,0,0,0
2.324,6.875,0,0,0,0,0
2.325,6.25,0,0,0,0,0
2.326,5.625,0,0,0,0,0
2.327,5.625,0,0,0,0,0
2.328,6.75,0,0,0,0,0
2.329,5.625,0,0,0,0,0
2.33,4.875,0,0,0,0,0
2.331,4.6875,0,0,0,0,0
2.332,5.625,0,0,0,0,0
2.333,5.9375,0,0,0,0,0
2.334,6.25,0,0,0,0,0
2.335,6.5625,0,0,0,0,0
2.336,5.9375,0,0,0,0,0
2.337,5.9375,0,0,0,0,0
2.338,7,0,0,0,0,0
2.339,7.5,0,0,0,0,0
2.34,7.1875,0,0,0,0,0
2.341,7.5,0,0,0,0,0
2.342,6.4375,0,0,0,0,0
2.343,5.9375,0,0,0,0,0
2.344,5,0,0,0,0,0
2.345,4.6875,0,0,0,0,0
2.346,4.8125,0,0,0,0,0
2.347,5.3125,0,0,0,0,0
2.348,6.25,0,0,0,0,0
2.349,7.5,0,0,0,0,0
2.35,7.0625,0,0,0,0,0
2.351,7.1875,0,0,0,0,0
2.352,7.625,0,0,0,0,0
2.353,6.875,0,0,0,0,0
2.354,5.9375,0,0,0,0,0
2.355,5.3125,0,0,0,0,0
2.356,3.625,0,0,0,0,0
2.357,2.5,0,0,0,0,0
2.358,3.75,0,0,0,0,0
2.359,4.375,0,0,0,0,0
2.36,4.375,0,0,0,0,0
2.361,5,0,0,0,0,0
2.362,5.3125,0,0,0,0,0
2.363,5,0,0,0,0,0
2.364,4.8125,0,0,0,0,0
2.365,5.3125,0,0,0,0,0
2.366,5.125,0,0,0,0,0
2.367,5.3125,0,0,0,0,0
2.368,5.3125,0,0,0,0,0
2.369,5.9375,0,0,0,0,0
2.37,6.25,0,0,0,0,0
2.371,6.875,0,0,0,0,0
2.372,5.8125,0,0,0,0,0
2.373,4.375,0,0,0,0,0
2.374,4.375,0,0,0,0,0
2.375,4.0625,0,0,0,0,0
2.376,3.625,0,0,0,0,0
2.377,3.125,0,0,0,0,0
2.378,3.75,0,0,0,0,0
2.379,3.4375,0,0,0,0,0
2.38,3.125,0,0,0,0,0
2.381,2.8125,0,0,0,0,0
2.382,4.5,0,0,0,0,0
2.383,5.625,0,0,0,0,0
2.384,5.75,0,0,0,0,0
2.385,5.3125,0,0,0,0,0
2.386,5.3125,0,0,0,0,0
2.387,5.3125,0,0,0,0,0
2.388,4.875,0,0,0,0,0
2.389,3.75,0,0,0,0,1
2.39,3.3125,0,0,0,0,0
2.391,3.125,0,0,0,0,0
2.392,3.125,0,0,0,0,0
2.393,4.0625,0,0,0,0,0
2.394,4.6875,0,0,0,0,0
2.395,4.375,0,0,0,0,0
2.396,4.25,0,0,0,0,0
2.397,3.75,0,0,0,0,0
2.398,3.625,0,0,0,0,0
2.399,3.125,0,0,0,0,0
2.4,3.75,0,0,0,0,0
2.401,4.0625,0,0,0,0,0
2.402,4.5,0,0,0,0,0
2.403,4.6875,0,0,0,0,0
2.404,5.4375,0,0,0,0,0
2.405,5.9375,0,0,0,0,0
2.406,3.9375,0,0,0,0,0
2.407,3.75,0,0,0,0,0
2.408,4.375,0,0,0,0,0
2.409,4.0625,0,0,0,0,0
2.41,3.75,0,0,0,0,0
2.411,4.375,0,0,0,0,0
2.412,3.75,0,0,0,0,0
2.413,3.75,0,0,0,0,0
2.414,3.5625,0,0,0,0,0
2.415,4.375,0,0,0,0,0
2.416,3.3125,0,0,0,0,0
2.417,4.0625,0,0,0,0,0
2.418,4.375,0,0,0,0,0
2.419,4.375,0,0,0,0,0
2.42,4.0625,0,0,0,0,0
2.421,4.6875,0,0,0,0,0
2.422,3.4375,0,0,0,0,0
2.423,3.75,0,0,0,0,0
2.424,4.0625,0,0,0,0,0
2.425,4.6875,0,0,0,0,0
2.426,3.75,0,0,0,0,0
2.427,3.75,0,0,0,0,0
2.428,3.3125,0,0,0,0,0
2.429,3.125,0,0,0,0,0
2.43,3.75,0,0,0,0,0
2.431,3.75,0,0,0,0,0
2.432,4.0625,0,0,0,0,0
2.433,3.75,0,0,0,0,0
2.434,4.25,0,0,0,0,0
2.435,4.375,0,0,0,0,0
2.436,4.5625,0,0,0,0,0
2.437,4.6875,0,0,0,0,0
2.438,3.9375,0,0,0,0,0
2.439,3.4375,0,0,0,0,0
2.44,4.0625,0,0,0,0,0
2.441,4.6875,0,0,0,0,0
2.442,4.8125,0,0,0,0,0
2.443,5,0,0,0,0,0
2.444,5.3125,0,0,0,0,0
2.445,5,0,0,0,0,0
2.446,5.4375,0,0,0,0,0
2.447,5.625,0,0,0,0,0
2.448,6.375,0,0,0,0,0
2.449,7.1875,0,0,0,0,0
2.45,6.25,0,0,0,0,0
2.451,5.9375,0,0,0,0,0
2.452,6.5625,0,0,0,0,0
2.453,6.25,0,0,0,0,0
2.454,6.6875,0,0,0,0,0
2.455,7.8125,0,0,0,0,0
2.456,7.375,0,0,0,0,0
2.457,6.875,0,0,0,0,0
2.458,5.8125,0,0,0,0,0
2.459,5.625,0,0,0,0,0
2.46,4.5625,0,0,0,0,0
2.461,4.0625,0,0,0,0,0
2.462,4.5,0,0,0,0,0
2.463,4.0625,0,0,0,0,0
2.464,2.0625,0,0,0,0,0
2.465,0.625,0,0,0,0,0
2.466,0.8125,0,0,0,0,0
2.467,0.9375,0,0,0,0,0
2.468,1.5625,0,0,0,0,0
2.469,2.5,0,0,0,0,0
2.47,2.625,0,0,0,0,0
2.471,3.75,0,0,0,0,0
2.472,4.5,0,0,0,0,0
2.473,5.3125,0,0,0,0,0
2.474,4.375,0,0,0,0,0
2.475,4.6875,0,0,0,0,0
2.476,4.25,0,0,0,0,0
2.477,3.75,0,0,0,0,0
2.478,3.3125,0,0,0,0,0
2.479,2.5,0,0,0,0,0
2.48,2.1875,0,0,0,0,0
2.481,2.1875,0,0,0,0,0
2.482,2.8125,0,0,0,0,0
2.483,3.125,0,0,0,0,0
2.484,2.375,0,0,0,0,0
2.485,3.125,0,0,0,0,0
2.486,3.875,0,0,0,0,0
2.487,4.375,0,0,0,0,0
2.488,4.8125,0,0,0,0,0
2.489,4.6875,0,0,0,0,0
2.49,4.0625,0,0,0,0,0
2.491,3.75,0,0,0,0,0
2.492,4.1875,0,0,0,0,0
2.493,4.0625,0,0,0,0,0
2.494,4.5,0,0,0,0,0
2.495,5.3125,0,0,0,0,0
2.496,5.625,0,0,0,0,0
2.497,5.625,0,0,0,0,0
2.498,5.9375,0,0,0,0,0
2.499,5.9375,0,0,0,0,0
2.5,6.25,0,0,0,0,0
2.501,5.625,0,0,0,0,0
2.502,5.4375,0,0,0,0,0
2.503,5,0,0,0,0,0
2.504,5,0,0,0,0,0
2.505,4.6875,0,0,0,0,0
2.506,4.1875,0,0,0,0,0
2.507,4.375,0,0,0,0,0
2.508,3.75,0,0,0,0,0
2.509,3.4375,0,0,0,0,0
2.51,2.8125,0,0,0,0,0
2.511,2.8125,0,0,0,0,0
2.512,4.0625,0,0,0,0,0
2.513,5.3125,0,0,0,0,0
2.514,5.125,0,0,0,0,0
2.515,4.6875,0,0,0,0,0
2.516,3.625,0,0,0,0,0
2.517,3.4375,0,0,0,0,0
2.518,4.1875,0,0,0,0,0
2.519,4.0625,0,0,0,0,0
2.52,4.375,0,0,0,0,0
2.521,3.75,0,0,0,0,0
2.522,3.625,0,0,0,0,0
2.523,3.125,0,0,0,0,0
2.524,3.4375,0,0,0,0,0
2.525,2.8125,0,0,0,0,0
2.526,3.125,0,0,0,0,0
2.527,2.5,0,0,0,0,0
2.528,3.4375,0,0,0,0,0
2.529,4.6875,0,0,0,0,0
2.53,4.1875,0,0,0,0,0
2.531,4.375,0,0,0,0,0
2.532,3.9375,0,0,0,0,0
2.533,3.75,0,0,0,0,0
2.534,3.75,0,0,0,0,0
2.535,3.4375,0,0,0,0,0
2.536,3.125,0,0,0,0,0
2.537,3.125,0,0,0,0,0
2.538,3.75,0,0,0,0,0
2.539,3.75,0,0,0,0,0
2.54,4.0625,0,0,0,0,0
2.541,4.375,0,0,0,0,0
2.542,4.5625,0,0,0,0,0
2.543,4.375,0,0,0,0,0
2.544,3.9375,0,0,0,0,0
2.545,2.8125,0,0,0,0,0
2.546,3.75,0,0,0,0,0
2.547,5.9375,0,0,0,0,0
2.548,7,0,0,0,0,0
2.549,8.4375,0,0,0,0,0
2.55,9.375,0,0,0,0,0
2.551,9.375,0,0,0,0,0
2.552,8.3125,0,0,0,0,0
2.553,7.5,0,0,0,0,0
2.554,7.5,0,0,0,0,0
2.555,7.1875,0,0,0,0,0
2.556,6.125,0,0,0,0,0
2.557,5.625,0,0,0,0,0
2.558,4.25,0,0,0,0,0
2.559,2.5,0,0,0,0,0
2.56,2.0625,0,0,0,0,0
2.561,1.25,0,0,0,0,0
2.562,1.125,0,0,0,0,0
2.563,0.9375,0,0,0,0,0
2.564,0.5,0,0,0,0,0
2.565,1.25,0,0,0,0,0
2.566,1.6875,0,0,0,0,0
2.567,1.5625,0,0,0,0,0
2.568,1.75,0,0,0,0,0
2.569,1.5625,0,0,0,0,0
2.57,1.6875,0,0,0,0,0
2.571,1.5625,0,0,0,0,0
2.572,2.3125,0,0,0,0,0
2.573,2.8125,0,0,0,0,0
2.574,2.8125,0,0,0,0,0
2.575,3.4375,0,0,0,0,0
2.576,3.4375,0,0,0,0,0
2.577,3.125,0,0,0,0,0
2.578,3.25,0,0,0,0,0
2.579,2.8125,0,0,0,0,0
2.58,2.8125,0,0,0,0,0
2.581,2.8125,0,0,0,0,0
2.582,3.25,0,0,0,0,0
2.583,3.75,0,0,0,0,0
2.584,3.75,0,0,0,0,0
2.585,3.4375,0,0,0,0,0
2.586,4.0625,0,0,0,0,0
2.587,4.375,0,0,0,0,0
2.588,4.1875,0,0,0,0,0
2.589,4.375,0,0,0,0,0
2.59,4.6875,0,0,0,0,0
2.591,4.6875,0,0,0,0,0
2.592,4.6875,0,0,0,0,0
2.593,5,0,0,0,0,0
2.594,4.6875,0,0,0,0,0
2.595,4.6875,0,0,0,0,0
2.596,4.6875,0,0,0,0,0
2.597,5,0,0,0,0,0
2.598,5.625,0,0,0,0,0
2.599,5.625,0,0,0,0,0
2.6,5.9375,0,0,0,0,0
2.601,5.9375,0,0,0,0,0
2.602,6.0625,0,0,0,0,0
2.603,5.625,0,0,0,0,0
2.604,5.625,0,0,0,0,0
2.605,4.6875,0,0,0,0,0
2.606,5.4375,0,0,0,0,0
2.607,5.9375,0,0,0,0,0
2.608,5.9375,0,0,0,0,0
2.609,5.9375,0,0,0,0,0
2.61,3.625,0,0,0,0,0
2.611,2.1875,0,0,0,0,0
2.612,1.25,0,0,0,0,0
2.613,1.875,0,0,0,0,0
2.614,2.625,0,0,0,0,0
2.615,2.5,0,0,0,0,0
2.616,2.375,0,0,0,0,0
2.617,2.5,0,0,0,0,0
2.618,2.625,0,0,0,0,0
2.619,2.5,0,0,0,0,0
2.62,2.5,0,0,0,0,0
2.621,2.1875,0,0,0,0,0
2.622,3.125,0,0,0,0,0
2.623,2.8125,0,0,0,0,0
2.624,2.5,0,0,0,0,0
2.625,2.5,0,0,0,0,0
2.626,3.5625,0,0,0,0,0
2.627,3.75,0,0,0,0,0
2.628,3.75,0,0,0,0,0
2.629,4.0625,0,0,0,0,0
2.63,3.5625,0,0,0,0,0
2.631,4.0625,0,0,0,0,0
2.632,3.9375,0,0,0,0,0
2.633,3.4375,0,0,0,0,0
2.634,3.4375,0,0,0,0,0
2.635,4.0625,0,0,0,0,0
2.636,4.1875,0,0,0,0,0
2.637,4.375,0,0,0,0,0
2.638,4.25,0,0,0,0,0
2.639,3.75,0,0,0,0,0
2.64,3.5625,0,0,0,0,0
2.641,3.75,0,0,0,0,0
2.642,3.9375,0,0,0,0,0
2.643,3.75,0,0,0,0,0
2.644,3,0,0,0,0,0
2.645,2.8125,0,0,0,0,0
2.646,3.4375,0,0,0,0,0
2.647,4.0625,0,0,0,0,0
2.648,4.375,0,0,0,0,0
2.649,4.0625,0,0,0,0,0
2.65,3.3125,0,0,0,0,0
2.651,2.8125,0,0,0,0,0
2.652,3.25,0,0,0,0,0
2.653,3.4375,0,0,0,0,0
2.654,3.25,0,0,0,0,0
2.655,3.75,0,0,0,0,0
2.656,3.25,0,0,0,0,0
2.657,3.4375,0,0,0,0,0
2.658,4.375,0,0,0,0,0
2.659,5.3125,0,0,0,0,0
2.66,5.9375,0,0,0,0,0
2.661,6.5625,0,0,0,0,0
2.662,6.875,0,0,0,0,0
2.663,6.875,0,0,0,0,0
2.664,6.5625,0,0,0,0,0
2.665,6.875,0,0,0,0,0
2.666,7.1875,0,0,0,0,0
2.667,7.1875,0,0,0,0,0
2.668,6.875,0,0,0,0,0
2.669,7.5,0,0,0,0,0
2.67,7.9375,0,0,0,0,0
2.671,8.125,0,0,0,0,0
2.672,7.5,0,0,0,0,0
2.673,7.1875,0,0,0,0,0
2.674,7.6875,0,0,0,0,0
2.675,7.5,0,0,0,0,0
2.676,5.9375,0,0,0,0,0
2.677,4.0625,0,0,0,0,0
2.678,3.4375,0,0,0,0,0
2.679,2.5,0,0,0,0,0
2.68,2.1875,0,0,0,0,0
2.681,2.8125,0,0,0,0,0
2.682,3.25,0,0,0,0,0
2.683,3.125,0,0,0,0,0
2.684,1.875,0,0,0,0,0
2.685,0.625,0,0,0,0,0
2.686,0.1875,0,0,0,0,0
2.687,0.3125,0,0,0,0,0
2.688,1.0625,0,0,0,0,0
2.689,1.25,0,0,0,0,0
2.69,1.375,0,0,0,0,0
2.691,1.25,0,0,0,0,0
2.692,1.4375,0,0,0,0,0
2.693,1.875,0,0,0,0,0
2.694,1.875,0,0,0,0,0
2.695,1.875,0,0,0,0,0
2.696,2.8125,0,0,0,0,0
2.697,2.8125,0,0,0,0,0
2.698,3.5625,0,0,0,0,0
2.699,3.75,0,0,0,0,0
2.7,3.625,0,0,0,0,0
2.701,3.75,0,0,0,0,0
2.702,3.75,0,0,0,0,0
2.703,4.0625,0,0,0,0,0
2.704,4.375,0,0,0,0,0
2.705,4.6875,0,0,0,0,0
2.706,4.6875,0,0,0,0,0
2.707,4.6875,0,0,0,0,0
2.708,4.375,0,0,0,0,0
2.709,3.75,0,0,0,0,0
2.71,3.625,0,0,0,0,0
2.711,3.4375,0,0,0,0,0
2.712,3.75,0,0,0,0,0
2.713,3.4375,0,0,0,0,0
2.714,3.625,0,0,0,0,0
2.715,3.125,0,0,0,0,0
2.716,3.4375,0,0,0,0,0
2.717,4.0625,0,0,0,0,0
2.718,4.375,0,0,0,0,0
2.719,3.75,0,0,0,0,0
2.72,3.25,0,0,0,0,0
2.721,4.375,0,0,0,0,0
2.722,5.3125,0,0,0,0,0
2.723,5.3125,0,0,0,0,0
2.724,6.0625,0,0,0,0,0
2.725,6.25,0,0,0,0,0
2.726,5,0,0,0,0,0
2.727,4.6875,0,0,0,0,0
2.728,4.875,0,0,0,0,0
2.729,4.6875,0,0,0,0,0
2.73,4.5625,0,0,0,0,0
2.731,3.75,0,0,0,0,0
2.732,3.3125,0,0,0,0,0
2.733,2.8125,0,0,0,0,0
2.734,3.875,0,0,0,0,0
2.735,5,0,0,0,0,0
2.736,5,0,0,0,0,0
2.737,5,0,0,0,0,0
2.738,5,0,0,0,0,0
2.739,4.375,0,0,0,0,0
2.74,3.9375,0,0,0,0,0
2.741,3.4375,0,0,0,0,0
2.742,3.5625,0,0,0,0,0
2.743,3.75,0,0,0,0,0
2.744,3.625,0,0,0,0,0
2.745,4.0625,0,0,0,0,0
2.746,4.5,0,0,0,0,0
2.747,5.3125,0,0,0,0,0
2.748,3.625,0,0,0,0,0
2.749,3.4375,0,0,0,0,0
2.75,3.4375,0,0,0,0,0
2.751,3.4375,0,0,0,0,0
2.752,3.875,0,0,0,0,0
2.753,4.375,0,0,0,0,0
2.754,5,0,0,0,0,0
2.755,5.3125,0,0,0,0,0
2.756,5.625,0,0,0,0,0
2.757,5.9375,0,0,0,0,0
2.758,6.375,0,0,0,0,0
2.759,6.5625,0,0,0,0,0
2.76,5.5,0,0,0,0,0
2.761,5.3125,0,0,0,0,0
2.762,5.1875,0,0,0,0,0
2.763,4.375,0,0,0,0,0
2.764,3.125,0,0,0,0,0
2.765,1.875,0,0,0,0,0
2.766,1.875,0,0,0,0,0
2.767,1.5625,0,0,0,0,0
2.768,2.5,0,0,0,0,0
2.769,3.75,0,0,0,0,0
2.77,3.75,0,0,0,0,0
2.771,3.75,0,0,0,0,0
2.772,2.8125,0,0,0,0,0
2.773,3.4375,0,0,0,0,0
2.774,3.75,0,0,0,0,0
2.775,3.75,0,0,0,0,0
2.776,3.875,0,0,0,0,0
2.777,3.4375,0,0,0,0,0
2.778,3.4375,0,0,0,0,0
2.779,3.125,0,0,0,0,0
2.78,3.5625,0,0,0,0,0
2.781,4.0625,0,0,0,0,0
2.782,4.25,0,0,0,0,0
2.783,4.0625,0,0,0,0,0
2.784,4.25,0,0,0,0,0
2.785,4.0625,0,0,0,0,0
2.786,4.1875,0,0,0,0,0
2.787,4.6875,0,0,0,0,0
2.788,4.8125,0,0,0,0,0
2.789,4.6875,0,0,0,0,0
2.79,4.0625,0,0,0,0,0
2.791,3.4375,0,0,0,0,0
2.792,4.0625,0,0,0,0,0
2.793,4.375,0,0,0,0,0
2.794,4.1875,0,0,0,0,0
2.795,4.0625,0,0,0,0,0
2.796,4.5625,0,0,0,0,0
2.797,4.0625,0,0,0,0,0
2.798,3.625,0,0,0,0,0
2.799,3.75,0,0,0,0,0
2.8,4.8125,0,0,0,0,0
2.801,5.625,0,0,0,0,0
2.802,4.5625,0,0,0,0,0
2.803,4.375,0,0,0,0,0
2.804,3.75,0,0,0,0,0
2.805,3.4375,0,0,0,0,0
2.806,3.3125,0,0,0,0,0
2.807,3.75,0,0,0,0,0
2.808,4.8125,0,0,0,0,0
2.809,5.625,0,0,0,0,0
2.81,5.4375,0,0,0,0,0
2.811,5.9375,0,0,0,0,0
2.812,6.25,0,0,0,0,0
2.813,5.9375,0,0,0,0,0
2.814,5.625,0,0,0,0,0
2.815,5.3125,0,0,0,0,0
2.816,6.4375,0,0,0,0,0
2.817,6.875,0,0,0,0,0
2.818,6.6875,0,0,0,0,0
2.819,6.5625,0,0,0,0,0
2.82,6.875,0,0,0,0,0
2.821,6.5625,0,0,0,0,0
2.822,6.125,0,0,0,0,0
2.823,5.9375,0,0,0,0,0
2.824,6.0625,0,0,0,0,0
2.825,6.25,0,0,0,0,0
2.826,6.0625,0,0,0,0,0
2.827,5.9375,0,0,0,0,0
2.828,6.25,0,0,0,0,0
2.829,7.1875,0,0,0,0,0
2.83,7.1875,0,0,0,0,0
2.831,7.1875,0,0,0,0,0
2.832,7.5,0,0,0,0,0
2.833,8.75,0,0,0,0,0
2.834,8.75,0,0,0,0,0
2.835,9.0625,0,0,0,0,0
2.836,8.75,0,0,0,0,0
2.837,8.125,0,0,0,0,0
2.838,7.0625,0,0,0,0,0
2.839,5.625,0,0,0,0,0
2.84,5.625,0,0,0,0,0
2.841,6.875,0,0,0,0,0
2.842,6.875,0,0,0,0,0
2.843,5.9375,0,0,0,0,0
2.844,5.8125,0,0,0,0,0
2.845,5.625,0,0,0,0,0
2.846,5.75,0,0,0,0,0
2.847,5.9375,0,0,0,0,0
2.848,5.9375,0,0,0,0,0
2.849,6.5625,0,0,0,0,0
2.85,6.4375,0,0,0,0,0
2.851,6.5625,0,0,0,0,0
2.852,7.625,0,0,0,0,0
2.853,8.125,0,0,0,0,0
2.854,8.4375,0,0,0,0,0
2.855,9.0625,0,0,0,0,0
2.856,8.9375,0,0,0,0,0
2.857,8.125,0,0,0,0,0
2.858,8.3125,0,0,0,0,0
2.859,8.4375,0,0,0,0,0
2.86,8.125,0,0,0,0,0
2.861,8.125,0,0,0,0,0
2.862,8.3125,0,0,0,0,0
2.863,8.4375,0,0,0,0,0
2.864,7.6875,0,0,0,0,0
2.865,6.875,0,0,0,0,0
2.866,7.625,0,0,0,0,0
2.867,7.5,0,0,0,0,0
2.868,6.5625,0,0,0,0,0
2.869,5.625,0,0,0,0,0
2.87,5.1875,0,0,0,0,0
2.871,4.375,0,0,0,0,0
2.872,4.8125,0,0,0,0,0
2.873,5.3125,0,0,0,0,0
2.874,5.3125,0,0,0,0,0
2.875,5.625,0,0,0,0,0
2.876,5.625,0,0,0,0,0
2.877,5.3125,0,0,0,0,0
2.878,5.5,0,0,0,0,0
2.879,5,0,0,0,0,0
2.88,4.6875,0,0,0,0,0
2.881,4.6875,0,0,0,0,0
2.882,4.6875,0,0,0,0,0
2.883,4.375,0,0,0,0,0
2.884,4.5625,0,0,0,0,0
2.885,4.6875,0,0,0,0,0
2.886,5.3125,0,0,0,0,0
2.887,5.9375,0,0,0,0,0
2.888,5.9375,0,0,0,0,0
2.889,6.5625,0,0,0,0,0
2.89,6.6875,0,0,0,0,0
2.891,6.5625,0,0,0,0,0
2.892,5.9375,0,0,0,0,0
2.893,5.625,0,0,0,0,0
2.894,6.5625,0,0,0,0,0
2.895,6.5625,0,0,0,0,0
2.896,6.25,0,0,0,0,0
2.897,5.625,0,0,0,0,0
2.898,4.6875,0,0,0,0,0
2.899,4.375,0,0,0,0,0
2.9,4.0625,0,0,0,0,0
2.901,4.6875,0,0,0,0,0
2.902,5,0,0,0,0,0
2.903,5,0,0,0,0,0
2.904,4.6875,0,0,0,0,0
2.905,4.0625,0,0,0,0,0
2.906,3.625,0,0,0,0,0
2.907,3.75,0,0,0,0,0
2.908,4.5,0,0,0,0,0
2.909,6.25,0,0,0,0,0
2.91,6.375,0,0,0,0,0
2.911,5.9375,0,0,0,0,0
2.912,6.25,0,0,0,0,0
2.913,5.9375,0,0,0,0,0
2.914,5.625,0,0,0,0,0
2.915,4.0625,0,0,0,0,0
2.916,3.75,0,0,0,0,0
2.917,3.4375,0,0,0,0,0
2.918,3.875,0,0,0,0,0
2.919,4.0625,0,0,0,0,0
2.92,3.875,0,0,0,0,0
2.921,4.375,0,0,0,0,0
2.922,4.5,0,0,0,0,0
2.923,5.625,0,0,0,0,0
2.924,6.5625,0,0,0,0,0
2.925,6.25,0,0,0,0,0
2.926,5.8125,0,0,0,0,0
2.927,4.6875,0,0,0,0,0
2.928,4.5625,0,0,0,0,0
2.929,4.6875,0,0,0,0,0
2.93,4.0625,0,0,0,0,0
2.931,4.0625,0,0,0,0,0
2.932,3.125,0,0,0,0,0
2.933,3.4375,0,0,0,0,0
2.934,4.1875,0,0,0,0,0
2.935,3.75,0,0,0,0,0
2.936,3.4375,0,0,0,0,0
2.937,3.125,0,0,0,0,0
2.938,3.125,0,0,0,0,0
2.939,2.8125,0,0,0,0,0
2.94,2.8125,0,0,0,0,0
2.941,2.8125,0,0,0,0,0
2.942,3.75,0,0,0,0,0
2.943,4.6875,0,0,0,0,0
2.944,4.375,0,0,0,0,0
2.945,4.0625,0,0,0,0,0
2.946,4.0625,0,0,0,0,0
2.947,4.0625,0,0,0,0,0
2.948,3.75,0,0,0,0,0
2.949,4.375,0,0,0,0,0
2.95,3.875,0,0,0,0,0
2.951,4.0625,0,0,0,0,0
2.952,3.75,0,0,0,0,0
2.953,3.4375,0,0,0,0,0
2.954,4.375,0,0,0,0,0
2.955,4.0625,0,0,0,0,0
2.956,3.125,0,0,0,0,0
2.957,3.75,0,0,0,0,0
2.958,3.9375,0,0,0,0,0
2.959,3.125,0,0,0,0,0
2.96,2.6875,0,0,0,0,0
2.961,2.8125,0,0,0,0,0
2.962,3.125,0,0,0,0,0
2.963,3.125,0,0,0,0,0
2.964,3.125,0,0,0,0,0
2.965,3.125,0,0,0,0,0
2.966,3.4375,0,0,0,0,0
2.967,3.4375,0,0,0,0,0
2.968,3.3125,0,0,0,0,0
2.969,3.4375,0,0,0,0,0
2.97,3.3125,0,0,0,0,0
2.971,2.8125,0,0,0,0,0
2.972,2.8125,0,0,0,0,0
2.973,3.4375,0,0,0,0,0
2.974,3.75,0,0,0,0,0
2.975,3.75,0,0,0,0,0
2.976,4.6875,0,0,0,0,0
2.977,4.0625,0,0,0,0,0
2.978,5,0,0,0,0,0
2.979,6.25,0,0,0,0,0
2.98,6.75,0,0,0,0,0
2.981,6.875,0,0,0,0,0
2.982,6.125,0,0,0,0,0
2.983,5.9375,0,0,0,0,0
2.984,4.0625,0,0,0,0,0
2.985,2.5,0,0,0,0,0
2.986,4.0625,0,0,0,0,0
2.987,5.9375,0,0,0,0,0
2.988,6.25,0,0,0,0,0
2.989,6.875,0,0,0,0,0
2.99,5.5,0,0,0,0,0
2.991,4.6875,0,0,0,0,0
2.992,3.625,1,0,0,0,0
2.993,2.8125,0,0,0,0,0
2.994,3.4375,0,0,0,0,0
2.995,3.125,0,0,0,0,0
2.996,3.25,0,0,0,0,0
2.997,3.125,0,0,0,0,0
2.998,3.4375,0,0,0,0,0
2.999,3.125,0,0,0,0,0
3,3.875,0,0,0,0,0
3.001,5,0,0,0,0,0
3.002,5.625,0,0,0,0,0
3.003,5.625,0,0,0,0,0
3.004,5,0,0,0,0,0
3.005,4.375,0,0,0,0,0
3.006,5.125,0,0,0,0,0
3.007,4.6875,0,0,0,0,0
3.008,5.625,0,0,0,0,0
3.009,6.5625,0,0,0,0,0
3.01,7.1875,0,0,0,0,0
3.011,7.8125,0,0,0,0,0
3.012,7.8125,0,0,0,0,0
3.013,8.4375,0,0,0,0,0
3.014,9.375,0,0,0,0,0
3.015,9.6875,0,0,0,0,0
3.016,10,0,0,0,0,0
3.017,10,0,0,0,0,0
3.018,10.625,0,0,0,0,0
3.019,11.25,0,0,0,0,0
3.02,11.875,0,0,0,0,0
3.021,12.5,0,0,0,0,0
3.022,13,0,0,0,0,0
3.023,13.438,0,0,0,0,0
3.024,14.063,0,0,0,0,0
3.025,14.688,0,0,0,0,0
3.026,15.5,0,0,0,0,0
3.027,16.563,0,0,0,0,0
3.028,18.75,0,0,0,0,0
3.029,20.625,0,0,0,0,0
3.03,21.875,0,0,0,0,0
3.031,22.813,0,0,0,0,0
3.032,23.438,0,0,0,0,0
3.033,24.375,0,0,0,0,0
3.034,26.25,0,0,0,0,0
3.035,27.188,0,0,0,0,0
3.036,28.125,0,0,0,0,0
3.037,28.125,0,0,0,0,0
3.038,28.563,0,0,0,0,0
3.039,29.375,0,0,0,0,0
3.04,29.875,0,1,0,0,0
3.041,30.625,0,0,0,0,0
3.042,30.313,0,0,0,0,0
3.043,30.625,0,0,0,0,0
3.044,31.563,0,0,0,0,0
3.045,32.5,0,0,0,0,0
3.046,32.938,0,0,0,0,0
3.047,33.125,0,0,0,0,0
3.048,32.625,0,0,0,0,0
3.049,31.563,0,0,0,0,0
3.05,29.5,0,0,0,0,0
3.051,26.25,0,0,0,0,0
3.052,22.063,0,0,0,0,0
3.053,18.75,0,0,0,0,0
3.054,16.063,0,0,0,0,0
3.055,13.75,0,0,0,0,0
3.056,11.688,0,0,0,0,0
3.057,9.0625,0,0,0,0,0
3.058,3.4375,0,0,0,0,0
3.059,-0.9375,0,0,0,0,0
3.06,-2.8125,0,0,0,0,0
3.061,-5.3125,0,0,0,0,0
3.062,-7.3125,0,0,0,0,0
3.063,-8.125,0,0,0,0,0
3.064,-8.625,0,0,0,0,0
3.065,-9.6875,0,0,0,0,0
3.066,-10.938,0,0,0,0,0
3.067,-10.938,0,0,0,0,0
3.068,-11.375,0,0,0,0,0
3.069,-11.563,0,0,0,0,0
3.07,-11.563,0,0,0,0,0
3.071,-10.313,0,0,0,0,0
3.072,-8.125,0,0,0,0,0
3.073,-6.25,0,0,0,0,0
3.074,-3,0,0,0,0,0
3.075,0,0,0,0,0,0
3.076,1.6875,0,0,0,0,0
3.077,2.8125,0,0,0,0,0
3.078,3.5625,0,0,0,0,0
3.079,5.3125,0,0,0,0,0
3.08,7,0,0,0,0,0
3.081,8.75,0,0,0,0,0
3.082,8.875,0,0,0,0,0
3.083,9.375,0,0,0,0,0
3.084,9.0625,0,0,0,0,0
3.085,9.0625,0,0,0,0,0
3.086,7.6875,0,0,0,0,0
3.087,6.5625,0,0,0,0,0
3.088,6.4375,0,0,0,0,0
3.089,5.625,0,0,0,0,0
3.09,4.0625,0,0,0,0,0
3.091,2.8125,0,0,0,0,0
3.092,2.0625,0,0,1,0,0
3.093,0.9375,0,0,0,0,0
3.094,1.25,0,0,0,0,0
3.095,0.9375,0,0,0,0,0
3.096,0,0,0,0,0,0
3.097,-0.9375,0,0,0,0,0
3.098,-0.3125,0,0,0,0,0
3.099,0.3125,0,0,0,0,0
3.1,1.0625,0,0,0,0,0
3.101,1.5625,0,0,0,0,0
3.102,1.5625,0,0,0,0,0
3.103,2.1875,0,0,0,0,0
3.104,1.4375,0,0,0,0,0
3.105,0,0,0,0,0,0
3.106,0,0,0,0,0,0
3.107,0.625,0,0,0,0,0
3.108,0.5,0,0,0,0,0
3.109,0.625,0,0,0,0,0
3.11,0.75,0,0,0,0,0
3.111,1.25,0,0,0,0,0
3.112,0.3125,0,0,0,0,0
3.113,0.625,0,0,0,0,0
3.114,1.25,0,0,0,0,0
3.115,0.9375,0,0,0,0,0
3.116,1.6875,0,0,0,0,0
3.117,2.1875,0,0,0,0,0
3.118,2.8125,0,0,0,0,0
3.119,2.8125,0,0,0,0,0
3.12,2.1875,0,0,0,0,0
3.121,2.1875,0,0,0,0,0
3.122,1.875,0,0,0,0,0
3.123,1.875,0,0,0,0,0
3.124,1.75,0,0,0,0,0
3.125,2.1875,0,0,0,0,0
3.126,1.6875,0,0,0,0,0
3.127,2.1875,0,0,0,0,0
3.128,2.3125,0,0,0,0,0
3.129,2.5,0,0,0,0,0
3.13,2.0625,0,0,0,0,0
3.131,1.875,0,0,0,0,0
3.132,2.1875,0,0,0,0,0
3.133,2.5,0,0,0,0,0
3.134,2.9375,0,0,0,0,0
3.135,3.4375,0,0,0,0,0
3.136,4.0625,0,0,0,0,0
3.137,3.75,0,0,0,0,0
3.138,4.1875,0,0,0,0,0
3.139,4.375,0,0,0,0,0
3.14,3.75,0,0,0,0,0
3.141,4.375,0,0,0,0,0
3.142,5,0,0,0,0,0
3.143,5,0,0,0,0,0
3.144,3.9375,0,0,0,0,0
3.145,2.8125,0,0,0,0,0
3.146,1.4375,0,0,0,0,0
3.147,0,0,0,0,0,0
3.148,0.4375,0,0,0,0,0
3.149,1.875,0,0,0,0,0
3.15,1.875,0,0,0,0,0
3.151,2.1875,0,0,0,0,0
3.152,1.875,0,0,0,0,0
3.153,1.875,0,0,0,0,0
3.154,1.875,0,0,0,0,0
3.155,0.9375,0,0,0,0,0
3.156,0.9375,0,0,0,0,0
3.157,0.9375,0,0,0,0,0
3.158,0.75,0,0,0,0,0
3.159,1.25,0,0,0,0,0
3.16,1.0625,0,0,0,0,0
3.161,0.625,0,0,0,0,0
3.162,1.125,0,0,0,0,0
3.163,0.9375,0,0,0,0,0
3.164,1.375,0,0,0,0,0
3.165,1.5625,0,0,0,0,0
3.166,1.4375,0,0,0,0,0
3.167,1.5625,0,0,0,0,0
3.168,1.25,0,0,0,0,0
3.169,1.5625,0,0,0,0,0
3.17,1.25,0,0,0,0,0
3.171,0.625,0,0,0,0,0
3.172,0.4375,0,0,0,0,0
3.173,0.9375,0,0,0,0,0
3.174,1.25,0,0,0,0,0
3.175,1.5625,0,0,0,0,0
3.176,2.3125,0,0,0,0,0
3.177,2.8125,0,0,0,0,0
3.178,3.125,0,0,0,0,0
3.179,2.5,0,0,0,0,0
3.18,2.8125,0,0,0,0,0
3.181,2.8125,0,0,0,0,0
3.182,2.5,0,0,0,0,0
3.183,2.1875,0,0,0,0,0
3.184,1.75,0,0,0,0,0
3.185,1.875,0,0,0,0,0
3.186,1.375,0,0,0,0,0
3.187,1.25,0,0,0,0,0
3.188,2.5,0,0,0,0,0
3.189,2.5,0,0,0,0,0
3.19,2.3125,0,0,0,0,0
3.191,3.125,0,0,0,0,0
3.192,3.75,0,0,0,0,0
3.193,4.6875,0,0,0,0,0
3.194,5.125,0,0,0,0,0
3.195,5,0,0,0,0,0
3.196,5.1875,0,0,0,0,0
3.197,5,0,0,0,0,0
3.198,5.3125,0,0,0,0,0
3.199,5.625,0,0,0,0,0
3.2,4.875,0,0,0,0,0
3.201,4.375,0,0,0,0,0
3.202,4.0625,0,0,0,0,0
3.203,3.4375,0,0,0,0,0
3.204,3,0,0,0,0,0
3.205,3.125,0,0,0,0,0
3.206,1.5625,0,0,0,0,0
3.207,0.9375,0,0,0,0,0
3.208,0.5,0,0,0,0,0
3.209,0,0,0,0,0,0
3.21,1.5625,0,0,0,0,0
3.211,2.1875,0,0,0,0,0
3.212,0.625,0,0,0,0,0
3.213,0,0,0,0,0,0
3.214,-0.3125,0,0,0,0,0
3.215,0,0,0,0,0,0
3.216,0.625,0,0,0,0,0
3.217,0.9375,0,0,0,0,0
3.218,0.625,0,0,0,0,0
3.219,1.25,0,0,0,0,0
3.22,1.6875,0,0,0,0,0
3.221,1.5625,0,0,0,0,0
3.222,1.875,0,0,0,0,0
3.223,2.1875,0,0,0,0,0
3.224,2.625,0,0,0,0,0
3.225,3.125,0,0,0,0,0
3.226,2.5,0,0,0,0,0
3.227,3.4375,0,0,0,0,0
3.228,4.0625,0,0,0,0,0
3.229,3.4375,0,0,0,0,0
3.23,3.875,0,0,0,0,0
3.231,3.75,0,0,0,0,0
3.232,2.8125,0,0,0,0,0
3.233,2.8125,0,0,0,0,0
3.234,2.8125,0,0,0,0,0
3.235,2.8125,0,0,0,0,0
3.236,3.125,0,0,0,0,0
3.237,3.75,0,0,0,0,0
3.238,3.75,0,0,0,0,0
3.239,2.8125,0,0,0,0,0
3.24,2.1875,0,0,0,0,0
3.241,2.1875,0,0,0,0,0
3.242,1.75,0,0,0,0,0
3.243,1.25,0,0,0,0,0
3.244,0.5,0,0,0,0,0
3.245,0.3125,0,0,0,0,0
3.246,0.9375,0,0,0,0,0
3.247,1.875,0,0,0,0,0
3.248,2.1875,0,0,0,0,0
3.249,2.5,0,0,0,0,0
3.25,1.875,0,0,0,0,0
3.251,1.875,0,0,0,0,0
3.252,1.75,0,0,0,0,0
3.253,2.8125,0,0,0,0,0
3.254,2.8125,0,0,0,0,0
3.255,2.8125,0,0,0,0,0
3.256,1.875,0,0,0,0,0
3.257,2.1875,0,0,0,0,0
3.258,2.8125,0,0,0,0,0
3.259,2.8125,0,0,0,0,0
3.26,3.5625,0,0,0,0,0
3.261,3.4375,0,0,0,0,0
3.262,3.5625,0,0,0,0,0
3.263,3.125,0,0,0,0,0
3.264,2.5,0,0,0,0,0
3.265,3.125,0,0,0,0,0
3.266,3.4375,0,0,0,0,0
3.267,3.75,0,0,0,0,0
3.268,4.6875,0,0,0,0,0
3.269,5,0,0,0,0,0
3.27,5,0,0,0,0,0
3.271,4.6875,0,0,0,0,0
3.272,4.25,0,0,0,0,0
3.273,4.375,0,0,0,0,0
3.274,5.3125,0,0,0,0,0
3.275,5.3125,0,0,0,0,0
3.276,5,0,0,0,0,0
3.277,4.6875,0,0,0,0,0
3.278,4.375,0,0,0,0,0
3.279,4.0625,0,0,0,0,0
3.28,3.9375,0,0,0,0,0
3.281,3.75,0,0,0,0,0
3.282,3.3125,0,0,0,0,0
3.283,2.8125,0,0,0,0,0
3.284,2.8125,0,0,0,0,0
3.285,2.8125,0,0,0,0,0
3.286,3.25,0,0,0,0,0
3.287,3.4375,0,0,0,0,0
3.288,3.75,0,0,0,0,0
3.289,3.4375,0,0,0,0,0
3.29,3.125,0,0,0,0,0
3.291,3.125,0,0,0,0,0
3.292,2.8125,0,0,0,0,0
3.293,2.8125,0,0,0,0,0
3.294,3.4375,0,0,0,0,0
3.295,3.75,0,0,0,0,0
3.296,4.6875,0,0,0,0,0
3.297,5.3125,0,0,0,0,0
3.298,6.25,0,0,0,0,0
3.299,6.5625,0,0,0,0,0
3.3,5.8125,0,0,0,0,0
3.301,5.3125,0,0,0,0,0
3.302,5.3125,0,0,0,0,0
3.303,5.625,0,0,0,0,0
3.304,5.8125,0,0,0,0,0
3.305,5.3125,0,0,0,0,0
3.306,5.75,0,0,0,0,0
3.307,6.5625,0,0,0,0,0
3.308,7.3125,0,0,0,0,0
3.309,8.125,0,0,0,0,0
3.31,7.0625,0,0,0,0,0
3.311,6.5625,0,0,0,0,0
3.312,5.625,0,0,0,0,0
3.313,5.625,0,0,0,0,0
3.314,5.625,0,0,0,0,0
3.315,5.9375,0,0,0,0,0
3.316,7,0,0,0,0,0
3.317,7.1875,0,0,0,0,0
3.318,7.1875,0,0,0,0,0
3.319,6.875,0,0,0,0,0
3.32,6.25,0,0,0,0,0
3.321,6.25,0,0,0,0,0
3.322,6.125,0,0,0,0,0
3.323,5.625,0,0,0,0,0
3.324,5.3125,0,0,0,0,0
3.325,4.6875,0,0,0,0,0
3.326,4.8125,0,0,0,0,0
3.327,4.6875,0,0,0,0,0
3.328,6.0625,0,0,0,0,0
3.329,7.5,0,0,0,0,0
3.33,8.125,0,0,0,0,0
3.331,8.4375,0,0,0,0,0
3.332,8.9375,0,0,0,0,0
3.333,9.0625,0,0,0,0,0
3.334,8.75,0,0,0,0,0
3.335,8.75,0,0,0,0,0
3.336,9.8125,0,0,0,0,0
3.337,9.375,0,0,0,0,0
3.338,8.125,0,0,0,0,0
3.339,7.8125,0,0,0,0,0
3.34,8,0,0,0,0,0
3.341,7.5,0,0,0,0,0
3.342,7.5,0,0,0,0,0
3.343,7.1875,0,0,0,0,0
3.344,7.375,0,0,0,0,0
3.345,7.8125,0,0,0,0,0
3.346,7.625,0,0,0,0,0
3.347,8.125,0,0,0,0,0
3.348,8.125,0,0,0,0,0
3.349,8.4375,0,0,0,0,0
3.35,7.8125,0,0,0,0,0
3.351,7.8125,0,0,0,0,0
3.352,8.4375,0,0,0,0,0
3.353,8.75,0,0,0,0,0
3.354,7.8125,0,0,0,0,0
3.355,6.875,0,0,0,0,0
3.356,7.0625,0,0,0,0,0
3.357,7.1875,0,0,0,0,0
3.358,6.4375,0,0,0,0,0
3.359,6.875,0,0,0,0,0
3.36,7.8125,0,0,0,0,0
3.361,8.75,0,0,0,0,0
3.362,8.5625,0,0,0,0,0
3.363,8.4375,0,0,0,0,0
3.364,8.3125,0,0,0,0,0
3.365,8.75,0,0,0,0,0
3.366,9.375,0,0,0,0,0
3.367,9.0625,0,0,0,0,0
3.368,9.1875,0,0,0,0,0
3.369,9.0625,0,0,0,0,0
3.37,8.625,0,0,0,0,0
3.371,9.0625,0,0,0,0,0
3.372,8.3125,0,0,0,0,0
3.373,7.8125,0,0,0,0,0
3.374,8.3125,0,0,0,0,0
3.375,8.125,0,0,0,0,0
3.376,8.875,0,0,0,0,0
3.377,9.375,0,0,0,0,0
3.378,9.8125,0,0,0,1,0
3.379,9.6875,0,0,0,0,0
3.38,10.625,0,0,0,0,0
3.381,11.25,0,0,0,0,0
3.382,11.688,0,0,0,0,0
3.383,11.875,0,0,0,0,0
3.384,10.813,0,0,0,0,0
3.385,9.375,0,0,0,0,0
3.386,9.0625,0,0,0,0,0
3.387,9.0625,0,0,0,0,0
3.388,9.0625,0,0,0,0,0
3.389,9.0625,0,0,0,0,0
3.39,8.3125,0,0,0,0,0
3.391,7.5,0,0,0,0,0
3.392,7.0625,0,0,0,0,0
3.393,6.875,0,0,0,0,0
3.394,7.5,0,0,0,0,0
3.395,7.5,0,0,0,0,0
3.396,7.1875,0,0,0,0,0
3.397,6.875,0,0,0,0,0
3.398,7.9375,0,0,0,0,0
3.399,8.125,0,0,0,0,0
3.4,8.75,0,0,0,0,0
3.401,9.0625,0,0,0,0,0
3.402,9.6875,0,0,0,0,0
3.403,10,0,0,0,0,0
3.404,9.8125,0,0,0,0,0
3.405,9.6875,0,0,0,0,0
3.406,9.5625,0,0,0,0,0
3.407,8.75,0,0,0,0,0
3.408,8.3125,0,0,0,0,0
3.409,7.8125,0,0,0,0,0
3.41,6.75,0,0,0,0,0
3.411,5.9375,0,0,0,0,0
3.412,6.0625,0,0,0,0,0
3.413,5.9375,0,0,0,0,0
3.414,6.375,0,0,0,0,0
3.415,6.5625,0,0,0,0,0
3.416,5.9375,0,0,0,0,0
3.417,5.9375,0,0,0,0,0
3.418,5.8125,0,0,0,0,0
3.419,6.5625,0,0,0,0,0
3.42,5.625,0,0,0,0,0
3.421,5,0,0,0,0,0
3.422,5.3125,0,0,0,0,0
3.423,6.5625,0,0,0,0,0
3.424,6.875,0,0,0,0,0
3.425,6.5625,0,0,0,0,0
3.426,6.375,0,0,0,0,0
3.427,6.25,0,0,0,0,0
3.428,6.25,0,0,0,0,0
3.429,6.25,0,0,0,0,0
3.43,5.9375,0,0,0,0,0
3.431,5.625,0,0,0,0,0
3.432,5.9375,0,0,0,0,0
3.433,5.625,0,0,0,0,0
3.434,6.0625,0,0,0,0,0
3.435,5.625,0,0,0,0,0
3.436,5.5,0,0,0,0,0
3.437,5.3125,0,0,0,0,0
3.438,6.375,0,0,0,0,0
3.439,7.1875,0,0,0,0,0
3.44,7.625,0,0,0,0,0
3.441,7.5,0,0,0,0,0
3.442,7.6875,0,0,0,0,0
3.443,7.8125,0,0,0,0,0
3.444,6.875,0,0,0,0,0
3.445,6.5625,0,0,0,0,0
3.446,6.5625,0,0,0,0,0
3.447,5.9375,0,0,0,0,0
3.448,5.625,0,0,0,0,0
3.449,5.9375,0,0,0,0,0
3.45,6.0625,0,0,0,0,0
3.451,6.25,0,0,0,0,0
3.452,8.125,0,0,0,0,0
3.453,9.375,0,0,0,0,0
3.454,9.0625,0,0,0,0,0
3.455,9.0625,0,0,0,0,0
3.456,8.625,0,0,0,0,0
3.457,7.1875,0,0,0,0,0
3.458,6.25,0,0,0,0,0
3.459,5.625,0,0,0,0,0
3.46,5.1875,0,0,0,0,0
3.461,3.75,0,0,0,0,0
3.462,3.125,0,0,0,0,0
3.463,2.1875,0,0,0,0,0
3.464,1.875,0,0,0,0,0
3.465,2.1875,0,0,0,0,0
3.466,2.1875,0,0,0,0,0
3.467,2.5,0,0,0,0,0
3.468,2.375,0,0,0,0,0
3.469,2.8125,0,0,0,0,0
3.47,2.625,0,0,0,0,0
3.471,2.8125,0,0,0,0,0
3.472,2.375,0,0,0,0,0
3.473,2.8125,0,0,0,0,0
3.474,3.125,0,0,0,0,0
3.475,3.125,0,0,0,0,0
3.476,2.5,0,0,0,0,0
3.477,2.8125,0,0,0,0,0
3.478,3.25,0,0,0,0,0
3.479,3.4375,0,0,0,0,0
3.48,3.875,0,0,0,0,0
3.481,5,0,0,0,0,0
3.482,5.75,0,0,0,0,0
3.483,5.625,0,0,0,0,0
3.484,5.3125,0,0,0,0,1
3.485,5,0,0,0,0,0
3.486,4.6875,0,0,0,0,0
3.487,5.3125,0,0,0,0,0
3.488,5.4375,0,0,0,0,0
3.489,5.625,0,0,0,0,0
3.49,3.9375,0,0,0,0,0
3.491,3.125,0,0,0,0,0
3.492,3.4375,0,0,0,0,0
3.493,3.4375,0,0,0,0,0
3.494,3.75,0,0,0,0,0
3.495,5,0,0,0,0,0
3.496,5.4375,0,0,0,0,0
3.497,4.375,0,0,0,0,0
3.498,4.375,0,0,0,0,0
3.499,4.375,0,0,0,0,0
3.5,4.375,0,0,0,0,0
3.501,4.0625,0,0,0,0,0
3.502,4.375,0,0,0,0,0
3.503,4.0625,0,0,0,0,0
3.504,5.3125,0,0,0,0,0
3.505,5.3125,0,0,0,0,0
3.506,5.4375,0,0,0,0,0
3.507,4.6875,0,0,0,0,0
3.508,5.1875,0,0,0,0,0
3.509,5,0,0,0,0,0
3.51,5.125,0,0,0,0,0
3.511,4.6875,0,0,0,0,0
3.512,4.6875,0,0,0,0,0
3.513,3.4375,0,0,0,0,0
3.514,4.0625,0,0,0,0,0
3.515,4.0625,0,0,0,0,0
3.516,4.8125,0,0,0,0,0
3.517,4.6875,0,0,0,0,0
3.518,4.6875,0,0,0,0,0
3.519,4.375,0,0,0,0,0
3.52,5.4375,0,0,0,0,0
3.521,6.5625,0,0,0,0,0
3.522,5.5,0,0,0,0,0
3.523,4.6875,0,0,0,0,0
3.524,3.3125,0,0,0,0,0
3.525,3.125,0,0,0,0,0
3.526,3.75,0,0,0,0,0
3.527,4.375,0,0,0,0,0
3.528,5.125,0,0,0,0,0
3.529,5.3125,0,0,0,0,0
3.53,4.25,0,0,0,0,0
3.531,3.4375,0,0,0,0,0
3.532,3,0,0,0,0,0
3.533,2.1875,0,0,0,0,0
3.534,1.875,0,0,0,0,0
3.535,1.5625,0,0,0,0,0
3.536,1.5625,0,0,0,0,0
3.537,2.5,0,0,0,0,0
3.538,3.5625,0,0,0,0,0
3.539,4.6875,0,0,0,0,0
3.54,5.125,0,0,0,0,0
3.541,5,0,0,0,0,0
3.542,4.875,0,0,0,0,0
3.543,5.3125,0,0,0,0,0
3.544,4.375,0,0,0,0,0
3.545,3.75,0,0,0,0,0
3.546,4.375,0,0,0,0,0
3.547,4.375,0,0,0,0,0
3.548,5.4375,0,0,0,0,0
3.549,5.9375,0,0,0,0,0
3.55,5.8125,0,0,0,0,0
3.551,4.6875,0,0,0,0,0
3.552,3.9375,0,0,0,0,0
3.553,3.4375,0,0,0,0,0
3.554,3.25,0,0,0,0,0
3.555,3.4375,0,0,0,0,0
3.556,3.75,0,0,0,0,0
3.557,4.0625,0,0,0,0,0
3.558,4.0625,0,0,0,0,0
3.559,3.75,0,0,0,0,0
3.56,4.0625,0,0,0,0,0
3.561,3.4375,0,0,0,0,0
3.562,3.75,0,0,0,0,0
3.563,3.75,0,0,0,0,0
3.564,4.1875,0,0,0,0,0
3.565,3.75,0,0,0,0,0
3.566,4.375,0,0,0,0,0
3.567,4.6875,0,0,0,0,0
3.568,4.5625,0,0,0,0,0
3.569,4.375,0,0,0,0,0
3.57,4.0625,0,0,0,0,0
3.571,4.0625,0,0,0,0,0
3.572,4.0625,0,0,0,0,0
3.573,4.0625,0,0,0,0,0
3.574,4.375,0,0,0,0,0
3.575,4.0625,0,0,0,0,0
3.576,5.9375,0,0,0,0,0
3.577,7.1875,0,0,0,0,0
3.578,7.0625,0,0,0,0,0
3.579,7.1875,0,0,0,0,0
3.58,7,0,0,0,0,0
3.581,6.5625,0,0,0,0,0
3.582,5.5,0,0,0,0,0
3.583,4.6875,0,0,0,0,0
3.584,3,0,0,0,0,0
3.585,2.1875,0,0,0,0,0
3.586,2.1875,0,0,0,0,0
3.587,1.875,0,0,0,0,0
3.588,2.5,0,0,0,0,0
3.589,3.125,0,0,0,0,0
3.59,2.9375,0,0,0,0,0
3.591,4.0625,0,0,0,0,0
3.592,4.0625,0,0,0,0,0
3.593,3.75,0,0,0,0,0
3.594,2.8125,0,0,0,0,0
3.595,2.8125,0,0,0,0,0
3.596,3.4375,0,0,0,0,0
3.597,3.4375,0,0,0,0,0
3.598,3.75,0,0,0,0,0
3.599,3.75,0,0,0,0,0
3.6,4.375,0,0,0,0,0
3.601,4.375,0,0,0,0,0
3.602,3.625,0,0,0,0,0
3.603,3.75,0,0,0,0,0
3.604,4.375,0,0,0,0,0
3.605,3.75,0,0,0,0,0
3.606,3.25,0,0,0,0,0
3.607,3.125,0,0,0,0,0
3.608,4.8125,0,0,0,0,0
3.609,5.9375,0,0,0,0,0
3.61,4.875,0,0,0,0,0
3.611,5,0,0,0,0,0
3.612,3.3125,0,0,0,0,0
3.613,2.5,0,0,0,0,0
3.614,2.0625,0,0,0,0,0
3.615,2.5,0,0,0,0,0
3.616,2.9375,0,0,0,0,0
3.617,3.4375,0,0,0,0,0
3.618,3.125,0,0,0,0,0
3.619,4.0625,0,0,0,0,0
3.62,4.8125,0,0,0,0,0
3.621,4.375,0,0,0,0,0
3.622,4.25,0,0,0,0,0
3.623,3.75,0,0,0,0,0
3.624,3.75,0,0,0,0,0
3.625,4.0625,0,0,0,0,0
3.626,4.8125,0,0,0,0,0
3.627,5.3125,0,0,0,0,0
3.628,5.1875,0,0,0,0,0
3.629,5.625,0,0,0,0,0
3.63,5.75,0,0,0,0,0
3.631,5.9375,0,0,0,0,0
3.632,5.5,0,0,0,0,0
3.633,5.3125,0,0,0,0,0
3.634,5.3125,0,0,0,0,0
3.635,5.625,0,0,0,0,0
3.636,4.375,0,0,0,0,0
3.637,2.8125,0,0,0,0,0
3.638,2.5,0,0,0,0,0
3.639,1.25,0,0,0,0,0
3.64,1.25,0,0,0,0,0
3.641,2.5,0,0,0,0,0
3.642,3.5625,0,0,0,0,0
3.643,3.75,0,0,0,0,0
3.644,2.5,0,0,0,0,0
3.645,1.25,0,0,0,0,0
3.646,0.5,0,0,0,0,0
3.647,0.3125,0,0,0,0,0
3.648,1.875,0,0,0,0,0
3.649,2.8125,0,0,0,0,0
3.65,3.125,0,0,0,0,0
3.651,3.4375,0,0,0,0,0
3.652,2.8125,0,0,0,0,0
3.653,2.8125,0,0,0,0,0
3.654,2.6875,0,0,0,0,0
3.655,2.1875,0,0,0,0,0
3.656,3.5625,0,0,0,0,0
3.657,4.0625,0,0,0,0,0
3.658,3.4375,0,0,0,0,0
3.659,3.75,0,0,0,0,0
3.66,3,0,0,0,0,0
3.661,2.1875,0,0,0,0,0
3.662,1.75,0,0,0,0,0
3.663,1.875,0,0,0,0,0
3.664,2,0,0,0,0,0
3.665,2.1875,0,0,0,0,0
3.666,2.6875,0,0,0,0,0
3.667,2.5,0,0,0,0,0
3.668,2.625,0,0,0,0,0
3.669,3.125,0,0,0,0,0
3.67,2.375,0,0,0,0,0
3.671,2.5,0,0,0,0,0
3.672,2.8125,0,0,0,0,0
3.673,2.8125,0,0,0,0,0
3.674,2.6875,0,0,0,0,0
3.675,2.8125,0,0,0,0,0
3.676,2.6875,0,0,0,0,0
3.677,2.8125,0,0,0,0,0
3.678,3.5625,0,0,0,0,0
3.679,4.0625,0,0,0,0,0
3.68,4.0625,0,0,0,0,0
3.681,4.375,0,0,0,0,0
3.682,4.6875,0,0,0,0,0
3.683,4.6875,0,0,0,0,0
3.684,4.6875,0,0,0,0,0
3.685,4.375,0,0,0,0,0
3.686,3.75,0,0,0,0,0
3.687,3.125,0,0,0,0,0
3.688,3.3125,0,0,0,0,0
3.689,3.4375,0,0,0,0,0
3.69,3.125,0,0,0,0,0
3.691,3.4375,0,0,0,0,0
3.692,4.375,0,0,0,0,0
3.693,5.3125,0,0,0,0,0
3.694,4.5625,0,0,0,0,0
3.695,5,0,0,0,0,0
3.696,5,0,0,0,0,0
3.697,5.625,0,0,0,0,0
3.698,5.1875,0,0,0,0,0
3.699,4.6875,0,0,0,0,0
3.7,4.25,0,0,0,0,0
3.701,3.125,0,0,0,0,0
3.702,3.875,0,0,0,0,0
3.703,3.125,0,0,0,0,0
3.704,3.125,0,0,0,0,0
3.705,3.4375,0,0,0,0,0
3.706,3.125,0,0,0,0,0
3.707,3.125,0,0,0,0,0
3.708,3.4375,0,0,0,0,0
3.709,3.4375,0,0,0,0,0
3.71,2.1875,0,0,0,0,0
3.711,1.5625,0,0,0,0,0
3.712,1.6875,0,0,0,0,0
3.713,2.5,0,0,0,0,0
3.714,2.5,0,0,0,0,0
3.715,2.8125,0,0,0,0,0
3.716,2.8125,0,0,0,0,0
3.717,3.4375,0,0,0,0,0
3.718,2.6875,0,0,0,0,0
3.719,2.1875,0,0,0,0,0
3.72,3.25,0,0,0,0,0
3.721,3.4375,0,0,0,0,0
3.722,4.0625,0,0,0,0,0
3.723,4.375,0,0,0,0,0
3.724,3.9375,0,0,0,0,0
3.725,3.75,0,0,0,0,0
3.726,4.0625,0,0,0,0,0
3.727,3.75,0,0,0,0,0
3.728,3.875,0,0,0,0,0
3.729,4.0625,0,0,0,0,0
3.73,4.0625,0,0,0,0,0
3.731,4.0625,0,0,0,0,0
3.732,4.1875,0,0,0,0,0
3.733,4.6875,0,0,0,0,0
3.734,5,0,0,0,0,0
3.735,4.6875,0,0,0,0,0
3.736,4.0625,0,0,0,0,0
3.737,3.75,0,0,0,0,0
3.738,4.1875,0,0,0,0,0
3.739,5,0,0,0,0,0
3.74,5.3125,0,0,0,0,0
3.741,5.3125,0,0,0,0,0
3.742,5.5625,0,0,0,0,0
3.743,6.5625,0,0,0,0,0
3.744,6.125,0,0,0,0,0
3.745,6.25,0,0,0,0,0
3.746,6.375,0,0,0,0,0
3.747,6.875,0,0,0,0,0
3.748,7.1875,0,0,0,0,0
3.749,6.875,0,0,0,0,0
3.75,4.875,0,0,0,0,0
3.751,2.8125,0,0,0,0,0
3.752,0,0,0,0,0,0
3.753,-2.8125,0,0,0,0,0
3.754,-2.6875,0,0,0,0,0
3.755,-2.5,0,0,0,0,0
3.756,-1.125,0,0,0,0,0
3.757,0.625,0,0,0,0,0
3.758,0.9375,0,0,0,0,0
3.759,1.875,0,0,0,0,0
3.76,2.625,0,0,0,0,0
3.761,3.75,0,0,0,0,0
3.762,4.1875,0,0,0,0,0
3.763,4.6875,0,0,0,0,0
3.764,4.25,0,0,0,0,0
3.765,4.0625,0,0,0,0,0
3.766,3.5625,0,0,0,0,0
3.767,2.8125,0,0,0,0,0
3.768,3,0,0,0,0,0
3.769,2.8125,0,0,0,0,0
3.77,1.875,0,0,0,0,0
3.771,2.1875,0,0,0,0,0
3.772,2.3125,0,0,0,0,0
3.773,1.875,0,0,0,0,0
3.774,1.875,0,0,0,0,0
3.775,2.1875,0,0,0,0,0
3.776,2.5,0,0,0,0,0
3.777,2.5,0,0,0,0,0
3.778,1.875,0,0,0,0,0
3.779,1.5625,0,0,0,0,0
3.78,1.6875,0,0,0,0,0
3.781,2.5,0,0,0,0,0
3.782,2.8125,0,0,0,0,0
3.783,3.125,0,0,0,0,0
3.784,2.6875,0,0,0,0,0
3.785,1.875,0,0,0,0,0
3.786,1.5625,0,0,0,0,0
3.787,1.5625,0,0,0,0,0
3.788,1.875,0,0,0,0,0
3.789,2.5,0,0,0,0,0
3.79,3.125,0,0,0,0,0
3.791,3.75,0,0,0,0,0
3.792,4.5,0,0,0,0,0
3.793,4.6875,0,0,0,0,0
3.794,5.125,0,0,0,0,0
3.795,4.375,0,0,0,0,0
3.796,4.875,0,0,0,0,0
3.797,4.6875,0,0,0,0,0
3.798,3.9375,0,0,0,0,0
3.799,3.4375,0,0,0,0,0
3.8,3.75,0,0,0,0,0
3.801,4.0625,0,0,0,0,0
3.802,4.375,0,0,0,0,0
3.803,4.375,0,0,0,0,0
3.804,4.375,0,0,0,0,0
3.805,4.6875,0,0,0,0,0
3.806,4.0625,0,0,0,0,0
3.807,3.75,0,0,0,0,0
3.808,5,0,0,0,0,0
3.809,5.9375,0,0,0,0,0
3.81,6.25,0,0,0,0,0
3.811,5.9375,0,0,0,0,0
3.812,5.625,0,0,0,0,0
3.813,5.9375,0,0,0,0,0
3.814,5.75,0,0,0,0,0
3.815,5.9375,0,0,0,0,0
3.816,5.3125,0,0,0,0,0
3.817,4.375,0,0,0,0,0
3.818,3.125,0,0,0,0,0
3.819,0.9375,0,0,0,0,0
3.82,1.25,0,0,0,0,0
3.821,1.25,0,0,0,0,0
3.822,1.875,0,0,0,0,0
3.823,2.5,0,0,0,0,0
3.824,2.1875,0,0,0,0,0
3.825,2.8125,0,0,0,0,0
3.826,2.375,0,0,0,0,0
3.827,1.5625,0,0,0,0,0
3.828,1.375,0,0,0,0,0
3.829,1.875,0,0,0,0,0
3.83,1.875,0,0,0,0,0
3.831,2.1875,0,0,0,0,0
3.832,2.1875,0,0,0,0,0
3.833,2.1875,0,0,0,0,0
3.834,2.9375,0,0,0,0,0
3.835,3.4375,0,0,0,0,0
3.836,3.5625,0,0,0,0,0
3.837,4.0625,0,0,0,0,0
3.838,4.1875,0,0,0,0,0
3.839,4.6875,0,0,0,0,0
3.84,5,0,0,0,0,0
3.841,5,0,0,0,0,0
3.842,3.625,0,0,0,0,0
3.843,3.125,0,0,0,0,0
3.844,2.6875,0,0,0,0,0
3.845,2.1875,0,0,0,0,0
3.846,2.1875,0,0,0,0,0
3.847,2.8125,0,0,0,0,0
3.848,4.375,0,0,0,0,0
3.849,4.6875,0,0,0,0,0
3.85,4.6875,0,0,0,0,0
3.851,3.75,0,0,0,0,0
3.852,3.5625,0,0,0,0,0
3.853,3.75,0,0,0,0,0
3.854,4.375,0,0,0,0,0
3.855,5,0,0,0,0,0
3.856,5.4375,0,0,0,0,0
3.857,5,0,0,0,0,0
3.858,4.875,0,0,0,0,0
3.859,5.3125,0,0,0,0,0
3.86,4.5625,0,0,0,0,0
3.861,3.4375,0,0,0,0,0
3.862,3.5625,0,0,0,0,0
3.863,5.3125,0,0,0,0,0
3.864,6.0625,0,0,0,0,0
3.865,5.9375,0,0,0,0,0
3.866,6.375,0,0,0,0,0
3.867,7.8125,0,0,0,0,0
3.868,7.8125,0,0,0,0,0
3.869,7.5,0,0,0,0,0
3.87,7.625,0,0,0,0,0
3.871,7.8125,0,0,0,0,0
3.872,7.9375,0,0,0,0,0
3.873,7.8125,0,0,0,0,0
3.874,7.5,0,0,0,0,0
3.875,7.8125,0,0,0,0,0
3.876,8.3125,0,0,0,0,0
3.877,7.8125,0,0,0,0,0
3.878,7.5,0,0,0,0,0
3.879,6.5625,0,0,0,0,0
3.88,6.875,0,0,0,0,0
3.881,6.5625,0,0,0,0,0
3.882,6.25,0,0,0,0,0
3.883,5.9375,0,0,0,0,0
3.884,5.625,0,0,0,0,0
3.885,5.3125,0,0,0,0,0
3.886,4.0625,0,0,0,0,0
3.887,3.125,0,0,0,0,0
3.888,3.75,0,0,0,0,0
3.889,3.75,0,0,0,0,0
3.89,3.875,0,0,0,0,0
3.891,5,0,0,0,0,0
3.892,5.75,0,0,0,0,0
3.893,6.25,0,0,0,0,0
3.894,5.8125,0,0,0,0,0
3.895,5.3125,0,0,0,0,0
3.896,5.625,0,0,0,0,0
3.897,5.3125,0,0,0,0,0
3.898,5.9375,0,0,0,0,0
3.899,5.9375,0,0,0,0,0
3.9,5.625,0,0,0,0,0
3.901,6.5625,0,0,0,0,0
3.902,7.1875,0,0,0,0,0
3.903,7.1875,0,0,0,0,0
3.904,6.4375,0,0,0,0,0
3.905,6.5625,0,0,0,0,0
3.906,6.875,0,0,0,0,0
3.907,6.5625,0,0,0,0,0
3.908,6.4375,0,0,0,0,0
3.909,6.5625,0,0,0,0,0
3.91,6.4375,0,0,0,0,0
3.911,5.9375,0,0,0,0,0
3.912,5.625,0,0,0,0,0
3.913,5.9375,0,0,0,0,0
3.914,6.375,0,0,0,0,0
3.915,6.875,0,0,0,0,0
3.916,6.5625,0,0,0,0,0
3.917,6.25,0,0,0,0,0
3.918,5.75,0,0,0,0,0
3.919,5.9375,0,0,0,0,0
3.92,6.0625,0,0,0,0,0
3.921,5.9375,0,0,0,0,0
3.922,6.25,0,0,0,0,0
3.923,6.875,0,0,0,0,0
3.924,7,0,0,0,0,0
3.925,7.5,0,0,0,0,0
3.926,7.5,0,0,0,0,0
3.927,7.5,0,0,0,0,0
3.928,7.5,0,0,0,0,0
3.929,7.1875,0,0,0,0,0
3.93,5,0,0,0,0,0
3.931,3.75,0,0,0,0,0
3.932,3.9375,0,0,0,0,0
3.933,3.4375,0,0,0,0,0
3.934,3.5625,0,0,0,0,0
3.935,3.75,0,0,0,0,0
3.936,4.5,0,0,0,0,0
3.937,5,0,0,0,0,0
3.938,4.6875,0,0,0,0,0
3.939,4.375,0,0,0,0,0
3.94,3.125,0,0,0,0,0
3.941,2.8125,0,0,0,0,0
3.942,2.375,0,0,0,0,0
3.943,2.1875,0,0,0,0,0
3.944,2.625,0,0,0,0,0
3.945,2.1875,0,0,0,0,0
3.946,2,0,0,0,0,0
3.947,1.875,0,0,0,0,0
3.948,2.1875,0,0,0,0,0
3.949,2.5,0,0,0,0,0
3.95,2.8125,0,0,0,0,0
3.951,2.5,0,0,0,0,0
3.952,2.3125,0,0,0,0,0
3.953,2.5,0,0,0,0,0
3.954,3.4375,0,0,0,0,0
3.955,3.75,0,0,0,0,0
3.956,4.25,0,0,0,0,0
3.957,4.0625,0,0,0,0,0
3.958,3.4375,0,0,0,0,0
3.959,4.0625,0,0,0,0,0
3.96,5,0,0,0,0,0
3.961,6.25,0,0,0,0,0
3.962,5.1875,0,0,0,0,0
3.963,5,0,0,0,0,0
3.964,4.25,0,0,0,0,0
3.965,3.75,0,0,0,0,0
3.966,3.4375,0,0,0,0,0
3.967,2.8125,0,0,0,0,0
3.968,3.5625,0,0,0,0,0
3.969,3.4375,0,0,0,0,0
3.97,3.125,0,0,0,0,0
3.971,3.4375,0,0,0,0,0
3.972,3.4375,0,0,0,0,0
3.973,3.4375,0,0,0,0,0
3.974,2.625,0,0,0,0,0
3.975,2.8125,0,0,0,0,0
3.976,3.4375,0,0,0,0,0
3.977,3.125,0,0,0,0,0
3.978,3.75,0,0,0,0,0
3.979,4.0625,0,0,0,0,0
3.98,5.625,0,0,0,0,0
3.981,6.875,0,0,0,0,0
3.982,6.375,0,0,0,0,0
3.983,6.5625,0,0,0,0,0
3.984,6.5625,0,0,0,0,0
3.985,6.5625,0,0,0,0,0
3.986,6.375,0,0,0,0,0
3.987,6.875,0,0,0,0,0
3.988,7.0625,0,0,0,0,0
3.989,6.875,0,0,0,0,0
3.99,6.875,0,0,0,0,0
3.991,6.5625,0,0,0,0,0
3.992,5.5,0,0,0,0,0
3.993,4.6875,0,0,0,0,0
3.994,4.5625,0,0,0,0,0
3.995,4.0625,0,0,0,0,0
3.996,4.8125,0,0,0,0,0
3.997,4.375,0,0,0,0,0
3.998,3.4375,0,0,0,0,0
3.999,2.1875,0,0,0,0,0
4,1.25,0,0,0,0,0
4.001,1.25,0,0,0,0,0
4.002,0.9375,0,0,0,0,0
4.003,0.625,0,0,0,0,0
4.004,0.8125,0,0,0,0,0
4.005,0.3125,0,0,0,0,0
4.006,-0.3125,0,0,0,0,0
4.007,-0.625,0,0,0,0,0
4.008,-0.3125,0,0,0,0,0
4.009,0,0,0,0,0,0
4.01,0.3125,0,0,0,0,0
4.011,0.9375,0,0,0,0,0
4.012,1.875,0,0,0,0,0
4.013,2.1875,0,0,0,0,0
4.014,2,0,0,0,0,0
4.015,2.5,0,0,0,0,0
4.016,2.6875,0,0,0,0,0
4.017,2.8125,0,0,0,0,0
4.018,2.8125,0,0,0,0,0
4.019,2.5,0,0,0,0,0
4.02,2.9375,0,0,0,0,0
4.021,3.4375,0,0,0,0,0
4.022,3.125,0,0,0,0,0
4.023,3.125,0,0,0,0,0
4.024,1.125,0,0,0,0,0
4.025,0,0,0,0,0,0
4.026,0.625,0,0,0,0,0
4.027,1.875,0,0,0,0,0
4.028,2.3125,0,0,0,0,0
4.029,2.1875,0,0,0,0,0
4.03,4.0625,0,0,0,0,0
4.031,5.625,0,0,0,0,0
4.032,6.0625,0,0,0,0,0
4.033,6.25,0,0,0,0,0
4.034,5.8125,0,0,0,0,0
4.035,5,0,0,0,0,0
4.036,4.6875,0,0,0,0,0
4.037,3.4375,0,0,0,0,0
4.038,2.6875,0,0,0,0,0
4.039,1.875,0,0,0,0,0
4.04,2.8125,0,0,0,0,0
4.041,4.0625,0,0,0,0,0
4.042,3.875,0,0,0,0,0
4.043,4.0625,0,0,0,0,0
4.044,3.875,0,0,0,0,0
4.045,4.0625,0,0,0,0,0
4.046,3.3125,0,0,0,0,0
4.047,3.4375,0,0,0,0,0
4.048,3.75,0,0,0,0,0
4.049,4.375,0,0,0,0,0
4.05,4.8125,0,0,0,0,0
4.051,4.6875,0,0,0,0,0
4.052,3.9375,1,0,0,0,0
4.053,4.0625,0,0,0,0,0
4.054,3,0,0,0,0,0
4.055,3.4375,0,0,0,0,0
4.056,5,0,0,0,0,0
4.057,5.625,0,0,0,0,0
4.058,5.5,0,0,0,0,0
4.059,5.625,0,0,0,0,0
4.06,6.6875,0,0,0,0,0
4.061,7.8125,0,0,0,0,0
4.062,7.5,0,0,0,0,0
4.063,7.8125,0,0,0,0,0
4.064,8,0,0,0,0,0
4.065,7.8125,0,0,0,0,0
4.066,7.8125,0,0,0,0,0
4.067,7.8125,0,0,0,0,0
4.068,9.6875,0,0,0,0,0
4.069,12.188,0,0,0,0,0
4.07,13.438,0,0,0,0,0
4.071,14.688,0,0,0,0,0
4.072,15.625,0,0,0,0,0
4.073,16.875,0,0,0,0,0
4.074,18.75,0,0,0,0,0
4.075,20.625,0,0,0,0,0
4.076,22.313,0,0,0,0,0
4.077,24.063,0,0,0,0,0
4.078,24.875,0,0,0,0,0
4.079,25,0,0,0,0,0
4.08,24.875,0,0,0,0,0
4.081,25.938,0,0,0,0,0
4.082,25.813,0,0,0,0,0
4.083,25.313,0,0,0,0,0
4.084,24.875,0,0,0,0,0
4.085,25,0,0,0,0,0
4.086,25.75,0,0,0,0,0
4.087,26.875,0,0,0,0,0
4.088,28.875,0,0,0,0,0
4.089,30.313,0,0,0,0,0
4.09,31.688,0,0,0,0,0
4.091,32.5,0,0,0,0,0
4.092,33.75,0,1,0,0,0
4.093,34.688,0,0,0,0,0
4.094,35,0,0,0,0,0
4.095,34.688,0,0,0,0,0
4.096,33.563,0,0,0,0,0
4.097,30.938,0,0,0,0,0
4.098,27.5,0,0,0,0,0
4.099,24.063,0,0,0,0,0
4.1,20.813,0,0,0,0,0
4.101,17.188,0,0,0,0,0
4.102,13.625,0,0,0,0,0
4.103,10.938,0,0,0,0,0
4.104,8.75,0,0,0,0,0
4.105,5.625,0,0,0,0,0
4.106,3.4375,0,0,0,0,0
4.107,1.5625,0,0,0,0,0
4.108,-2,0,0,0,0,0
4.109,-4.375,0,0,0,0,0
4.11,-5.3125,0,0,0,0,0
4.111,-6.5625,0,0,0,0,0
4.112,-8.75,0,0,0,0,0
4.113,-10.625,0,0,0,0,0
4.114,-9.375,0,0,0,0,0
4.115,-8.4375,0,0,0,0,0
4.116,-8.125,0,0,0,0,0
4.117,-8.125,0,0,0,0,0
4.118,-7.3125,0,0,0,0,0
4.119,-5.625,0,0,0,0,0
4.12,-3.3125,0,0,0,0,0
4.121,-0.9375,0,0,0,0,0
4.122,1.5625,0,0,0,0,0
4.123,3.4375,0,0,0,0,0
4.124,4.375,0,0,0,0,0
4.125,5.3125,0,0,0,0,0
4.126,5.8125,0,0,0,0,0
4.127,5.9375,0,0,0,0,0
4.128,6.5625,0,0,0,0,0
4.129,6.25,0,0,0,0,0
4.13,5.3125,0,0,0,0,0
4.131,3.75,0,0,1,0,0
4.132,3.625,0,0,0,0,0
4.133,2.8125,0,0,0,0,0
4.134,2.625,0,0,0,0,0
4.135,3.125,0,0,0,0,0
4.136,3.4375,0,0,0,0,0
4.137,3.125,0,0,0,0,0
4.138,2.5,0,0,0,0,0
4.139,2.8125,0,0,0,0,0
4.14,2.6875,0,0,0,0,0
4.141,2.8125,0,0,0,0,0
4.142,2.375,0,0,0,0,0
4.143,1.875,0,0,0,0,0
4.144,1.5625,0,0,0,0,0
4.145,1.5625,0,0,0,0,0
4.146,1.5625,0,0,0,0,0
4.147,1.875,0,0,0,0,0
4.148,1.75,0,0,0,0,0
4.149,1.5625,0,0,0,0,0
4.15,2.1875,0,0,0,0,0
4.151,2.1875,0,0,0,0,0
4.152,1.5625,0,0,0,0,0
4.153,1.25,0,0,0,0,0
4.154,1.4375,0,0,0,0,0
4.155,1.25,0,0,0,0,0
4.156,2,0,0,0,0,0
4.157,2.5,0,0,0,0,0
4.158,2.5,0,0,0,0,0
4.159,1.5625,0,0,0,0,0
4.16,1.75,0,0,0,0,0
4.161,1.5625,0,0,0,0,0
4.162,0.9375,0,0,0,0,0
4.163,1.25,0,0,0,0,0
4.164,2,0,0,0,0,0
4.165,3.125,0,0,0,0,0
4.166,3.75,0,0,0,0,0
4.167,4.0625,0,0,0,0,0
4.168,4.6875,0,0,0,0,0
4.169,4.6875,0,0,0,0,0
4.17,5,0,0,0,0,0
4.171,5.625,0,0,0,0,0
4.172,6.375,0,0,0,0,0
4.173,5.9375,0,0,0,0,0
4.174,6.5625,0,0,0,0,0
4.175,6.875,0,0,0,0,0
4.176,7,0,0,0,0,0
4.177,6.875,0,0,0,0,0
4.178,6.875,0,0,0,0,0
4.179,6.875,0,0,0,0,0
4.18,5.625,0,0,0,0,0
4.181,4.375,0,0,0,0,0
4.182,3.4375,0,0,0,0,0
4.183,3.125,0,0,0,0,0
4.184,1.5625,0,0,0,0,0
4.185,0.3125,0,0,0,0,0
4.186,-0.3125,0,0,0,0,0
4.187,-0.9375,0,0,0,0,0
4.188,-0.4375,0,0,0,0,0
4.189,-0.3125,0,0,0,0,0
4.19,-0.1875,0,0,0,0,0
4.191,-0.3125,0,0,0,0,0
4.192,-1.0625,0,0,0,0,0
4.193,-1.875,0,0,0,0,0
4.194,-2.3125,0,0,0,0,0
4.195,-2.8125,0,0,0,0,0
4.196,-2.1875,0,0,0,0,0
4.197,-2.1875,0,0,0,0,0
4.198,-1.75,0,0,0,0,0
4.199,-1.25,0,0,0,0,0
4.2,0.3125,0,0,0,0,0
4.201,1.25,0,0,0,0,0
4.202,0.4375,0,0,0,0,0
4.203,0.625,0,0,0,0,0
4.204,0.75,0,0,0,0,0
4.205,0.625,0,0,0,0,0
4.206,1.25,0,0,0,0,0
4.207,1.25,0,0,0,0,0
4.208,1.25,0,0,0,0,0
4.209,2.5,0,0,0,0,0
4.21,2.5,0,0,0,0,0
4.211,2.5,0,0,0,0,0
4.212,1.875,0,0,0,0,0
4.213,1.875,0,0,0,0,0
4.214,2.375,0,0,0,0,0
4.215,2.1875,0,0,0,0,0
4.216,2.6875,0,0,0,0,0
4.217,2.1875,0,0,0,0,0
4.218,1.5625,0,0,0,0,0
4.219,1.25,0,0,0,0,0
4.22,2,0,0,0,0,0
4.221,2.1875,0,0,0,0,0
4.222,1.5625,0,0,0,0,0
4.223,1.5625,0,0,0,0,0
4.224,1.875,0,0,0,0,0
4.225,2.5,0,0,0,0,0
4.226,1.5625,0,0,0,0,0
4.227,1.875,0,0,0,0,0
4.228,1.875,0,0,0,0,0
4.229,1.5625,0,0,0,0,0
4.23,1.6875,0,0,0,0,0
4.231,1.5625,0,0,0,0,0
4.232,1.125,0,0,0,0,0
4.233,-0.3125,0,0,0,0,0
4.234,-0.5,0,0,0,0,0
4.235,0.625,0,0,0,0,0
4.236,0.625,0,0,0,0,0
4.237,0.3125,0,0,0,0,0
4.238,0.5,0,0,0,0,0
4.239,0.3125,0,0,0,0,0
4.24,0.9375,0,0,0,0,0
4.241,1.5625,0,0,0,0,0
4.242,1.875,0,0,0,0,0
4.243,2.8125,0,0,0,0,0
4.244,2.6875,0,0,0,0,0
4.245,3.125,0,0,0,0,0
4.246,3.875,0,0,0,0,0
4.247,3.75,0,0,0,0,0
4.248,3.4375,0,0,0,0,0
4.249,3.125,0,0,0,0,0
4.25,2.6875,0,0,0,0,0
4.251,2.1875,0,0,0,0,0
4.252,3.125,0,0,0,0,0
4.253,2.5,0,0,0,0,0
4.254,2.3125,0,0,0,0,0
4.255,3.125,0,0,0,0,0
4.256,3.625,0,0,0,0,0
4.257,4.0625,0,0,0,0,0
4.258,4.0625,0,0,0,0,0
4.259,3.125,0,0,0,0,0
4.26,2.5,0,0,0,0,0
4.261,2.1875,0,0,0,0,0
4.262,2.6875,0,0,0,0,0
4.263,2.5,0,0,0,0,0
4.264,1.75,0,0,0,0,0
4.265,0.9375,0,0,0,0,0
4.266,1.125,0,0,0,0,0
4.267,0.9375,0,0,0,0,0
4.268,0.9375,0,0,0,0,0
4.269,1.25,0,0,0,0,0
4.27,2.1875,0,0,0,0,0
4.271,3.125,0,0,0,0,0
4.272,3.125,0,0,0,0,0
4.273,2.5,0,0,0,0,0
4.274,2.375,0,0,0,0,0
4.275,1.875,0,0,0,0,0
4.276,0.625,0,0,0,0,0
4.277,0,0,0,0,0,0
4.278,0,0,0,0,0,0
4.279,0,0,0,0,0,0
4.28,1.25,0,0,0,0,0
4.281,2.1875,0,0,0,0,0
4.282,2.9375,0,0,0,0,0
4.283,4.0625,0,0,0,0,0
4.284,5,0,0,0,0,0
4.285,5.625,0,0,0,0,0
4.286,4.25,0,0,0,0,0
4.287,3.125,0,0,0,0,0
4.288,2.1875,0,0,0,0,0
4.289,0.9375,0,0,0,0,0
4.29,0.625,0,0,0,0,0
4.291,0,0,0,0,0,0
4.292,0,0,0,0,0,0
4.293,0,0,0,0,0,0
4.294,1.25,0,0,0,0,0
4.295,1.875,0,0,0,0,0
4.296,0.9375,0,0,0,0,0
4.297,-0.625,0,0,0,0,0
4.298,-1.25,0,0,0,0,0
4.299,-1.875,0,0,0,0,0
4.3,0.3125,0,0,0,0,0
4.301,0.9375,0,0,0,0,0
4.302,0.75,0,0,0,0,0
4.303,0.3125,0,0,0,0,0
4.304,0.5,0,0,0,0,0
4.305,0.3125,0,0,0,0,0
4.306,-0.125,0,0,0,0,0
4.307,0.3125,0,0,0,0,0
4.308,0.3125,0,0,0,0,0
4.309,0.625,0,0,0,0,0
4.31,0.625,0,0,0,0,0
4.311,0.9375,0,0,0,0,0
4.312,1.875,0,0,0,0,0
4.313,1.5625,0,0,0,0,0
4.314,1.6875,0,0,0,0,0
4.315,2.5,0,0,0,0,0
4.316,2.3125,0,0,0,0,0
4.317,2.8125,0,0,0,0,0
4.318,2.6875,0,0,0,0,0
4.319,2.5,0,0,0,0,0
4.32,3.125,0,0,0,0,0
4.321,3.4375,0,0,0,0,0
4.322,3.25,0,0,0,0,0
4.323,3.75,0,0,0,0,0
4.324,3.3125,0,0,0,0,0
4.325,2.8125,0,0,0,0,0
4.326,2.5,0,0,0,0,0
4.327,2.5,0,0,0,0,0
4.328,2.9375,0,0,0,0,0
4.329,3.125,0,0,0,0,0
4.33,3.75,0,0,0,0,0
4.331,4.0625,0,0,0,0,0
4.332,3.75,0,0,0,0,0
4.333,3.75,0,0,0,0,0
4.334,3.5625,0,0,0,0,0
4.335,4.375,0,0,0,0,0
4.336,3.9375,0,0,0,0,0
4.337,3.4375,0,0,0,0,0
4.338,5,0,0,0,0,0
4.339,5.9375,0,0,0,0,0
4.34,5.625,0,0,0,0,0
4.341,5.9375,0,0,0,0,0
4.342,5.8125,0,0,0,0,0
4.343,5.625,0,0,0,0,0
4.344,4.5625,0,0,0,0,0
4.345,4.0625,0,0,0,0,0
4.346,4.375,0,0,0,0,0
4.347,4.0625,0,0,0,0,0
4.348,4.375,0,0,0,0,0
4.349,5,0,0,0,0,0
4.35,5.3125,0,0,0,0,0
4.351,5.9375,0,0,0,0,0
4.352,5.9375,0,0,0,0,0
4.353,6.25,0,0,0,0,0
4.354,6.4375,0,0,0,0,0
4.355,5.9375,0,0,0,0,0
4.356,5.8125,0,0,0,0,0
4.357,5,0,0,0,0,0
4.358,4.375,0,0,0,0,0
4.359,3.4375,0,0,0,0,0
4.36,4.1875,0,0,0,0,0
4.361,4.0625,0,0,0,0,0
4.362,4.375,0,0,0,0,0
4.363,5.625,0,0,0,0,0
4.364,6.375,0,0,0,0,0
4.365,6.5625,0,0,0,0,0
4.366,6.5625,0,0,0,0,0
4.367,6.875,0,0,0,0,0
4.368,6.5625,0,0,0,0,0
4.369,6.875,0,0,0,0,0
4.37,6.4375,0,0,0,0,0
4.371,5.9375,0,0,0,0,0
4.372,5.625,0,0,0,0,0
4.373,5.3125,0,0,0,0,0
4.374,4.875,0,0,0,0,0
4.375,5,0,0,0,0,0
4.376,5.4375,0,0,0,0,0
4.377,5.9375,0,0,0,0,0
4.378,6.0625,0,0,0,0,0
4.379,6.875,0,0,0,0,0
4.38,6.75,0,0,0,0,0
4.381,5.9375,0,0,0,0,0
4.382,5.1875,0,0,0,0,0
4.383,5,0,0,0,0,0
4.384,4.5,0,0,0,0,0
4.385,4.375,0,0,0,0,0
4.386,4.8125,0,0,0,0,0
4.387,5.625,0,0,0,0,0
4.388,6.6875,0,0,0,0,0
4.389,8.4375,0,0,0,0,0
4.39,8.4375,0,0,0,0,0
4.391,8.4375,0,0,0,0,0
4.392,8.625,0,0,0,0,0
4.393,7.5,0,0,0,0,0
4.394,8.25,0,0,0,0,0
4.395,9.0625,0,0,0,0,0
4.396,9.5,0,0,0,0,0
4.397,8.75,0,0,0,0,0
4.398,7.6875,0,0,0,0,0
4.399,7.5,0,0,0,0,0
4.4,7.375,0,0,0,0,0
4.401,6.5625,0,0,0,0,0
4.402,6.125,0,0,0,0,0
4.403,6.25,0,0,0,0,0
4.404,6.6875,0,0,0,0,0
4.405,6.5625,0,0,0,0,0
4.406,7.0625,0,0,0,0,0
4.407,6.875,0,0,0,0,0
4.408,7.5,0,0,0,0,0
4.409,7.1875,0,0,0,0,0
4.41,7.1875,0,0,0,0,0
4.411,7.8125,0,0,0,0,0
4.412,8.5625,0,0,0,0,0
4.413,9.0625,0,0,0,0,0
4.414,8.4375,0,0,0,0,0
4.415,8.4375,0,0,0,0,0
4.416,8.25,0,0,0,0,0
4.417,8.125,0,0,0,0,0
4.418,8.875,0,0,0,0,0
4.419,8.75,0,0,0,0,0
4.42,8.125,0,0,0,0,0
4.421,8.125,0,0,0,0,0
4.422,8,0,0,0,0,0
4.423,8.125,0,0,0,0,0
4.424,8.75,0,0,0,0,0
4.425,9.375,0,0,0,0,0
4.426,8.75,0,0,0,0,0
4.427,9.0625,0,0,0,0,0
4.428,8.9375,0,0,0,0,0
4.429,9.0625,0,0,0,0,0
4.43,9.375,0,0,0,1,0
4.431,9.6875,0,0,0,0,0
4.432,9.6875,0,0,0,0,0
4.433,9.6875,0,0,0,0,0
4.434,9.5625,0,0,0,0,0
4.435,9.6875,0,0,0,0,0
4.436,10.125,0,0,0,0,0
4.437,10,0,0,0,0,0
4.438,9.6875,0,0,0,0,0
4.439,9.6875,0,0,0,0,0
4.44,9.5625,0,0,0,0,0
4.441,9.375,0,0,0,0,0
4.442,9.5,0,0,0,0,0
4.443,9.6875,0,0,0,0,0
4.444,8.9375,0,0,0,0,0
4.445,9.0625,0,0,0,0,0
4.446,8.75,0,0,0,0,0
4.447,8.75,0,0,0,0,0
4.448,8.5625,0,0,0,0,0
4.449,9.375,0,0,0,0,0
4.45,9.6875,0,0,0,0,0
4.451,9.375,0,0,0,0,0
4.452,8.75,0,0,0,0,0
4.453,8.4375,0,0,0,0,0
4.454,7.6875,0,0,0,0,0
4.455,7.5,0,0,0,0,0
4.456,7.0625,0,0,0,0,0
4.457,6.25,0,0,0,0,0
4.458,6.375,0,0,0,0,0
4.459,6.5625,0,0,0,0,0
4.46,7,0,0,0,0,0
4.461,7.8125,0,0,0,0,0
4.462,8.125,0,0,0,0,0
4.463,7.8125,0,0,0,0,0
4.464,6.4375,0,0,0,0,0
4.465,5.625,0,0,0,0,0
4.466,7,0,0,0,0,0
4.467,6.25,0,0,0,0,0
4.468,5.5,0,0,0,0,0
4.469,5.3125,0,0,0,0,0
4.47,6.5625,0,0,0,0,0
4.471,7.1875,0,0,0,0,0
4.472,6.875,0,0,0,0,0
4.473,6.5625,0,0,0,0,0
4.474,6.5625,0,0,0,0,0
4.475,7.1875,0,0,0,0,0
4.476,7.375,0,0,0,0,0
4.477,6.875,0,0,0,0,0
4.478,5.8125,0,0,0,0,0
4.479,5.3125,0,0,0,0,0
4.48,5.625,0,0,0,0,0
4.481,6.5625,0,0,0,0,0
4.482,6.0625,0,0,0,0,0
4.483,6.25,0,0,0,0,0
4.484,5.625,0,0,0,0,0
4.485,5.3125,0,0,0,0,0
4.486,5.3125,0,0,0,0,0
4.487,5.625,0,0,0,0,0
4.488,5.3125,0,0,0,0,0
4.489,5.625,0,0,0,0,0
4.49,7,0,0,0,0,0
4.491,7.1875,0,0,0,0,0
4.492,7,0,0,0,0,0
4.493,7.1875,0,0,0,0,0
4.494,6.4375,0,0,0,0,0
4.495,6.25,0,0,0,0,0
4.496,6.75,0,0,0,0,0
4.497,6.5625,0,0,0,0,0
4.498,5.625,0,0,0,0,0
4.499,5.3125,0,0,0,0,0
4.5,5.4375,0,0,0,0,0
4.501,5,0,0,0,0,0
4.502,4.5625,0,0,0,0,0
4.503,4.6875,0,0,0,0,0
4.504,4.375,0,0,0,0,0
4.505,4.375,0,0,0,0,0
4.506,4.0625,0,0,0,0,0
4.507,4.375,0,0,0,0,0
4.508,4.0625,0,0,0,0,0
4.509,4.0625,0,0,0,0,0
4.51,4.375,0,0,0,0,0
4.511,4.375,0,0,0,0,0
4.512,3.9375,0,0,0,0,0
4.513,3.125,0,0,0,0,0
4.514,2.5,0,0,0,0,0
4.515,1.875,0,0,0,0,0
4.516,2.375,0,0,0,0,0
4.517,1.875,0,0,0,0,0
4.518,2.3125,0,0,0,0,0
4.519,2.8125,0,0,0,0,0
4.52,4.1875,0,0,0,0,0
4.521,5,0,0,0,0,0
4.522,5.3125,0,0,0,0,0
4.523,5,0,0,0,0,0
4.524,5.1875,0,0,0,0,0
4.525,5.3125,0,0,0,0,0
4.526,5.3125,0,0,0,0,0
4.527,4.6875,0,0,0,0,0
4.528,4.5625,0,0,0,0,0
4.529,4.6875,0,0,0,0,0
4.53,4.0625,0,0,0,0,0
4.531,4.375,0,0,0,0,0
4.532,5.125,0,0,0,0,0
4.533,5,0,0,0,0,0
4.534,4.0625,0,0,0,0,0
4.535,2.8125,0,0,0,0,0
4.536,2.0625,0,0,0,0,1
4.537,0.9375,0,0,0,0,0
4.538,2.625,0,0,0,0,0
4.539,4.0625,0,0,0,0,0
4.54,4.0625,0,0,0,0,0
4.541,3.75,0,0,0,0,0
4.542,5.3125,0,0,0,0,0
4.543,6.5625,0,0,0,0,0
4.544,5.625,0,0,0,0,0
4.545,6.5625,0,0,0,0,0
4.546,7.1875,0,0,0,0,0
4.547,6.875,0,0,0,0,0
4.548,5.625,0,0,0,0,0
4.549,5.3125,0,0,0,0,0
4.55,5.75,0,0,0,0,0
4.551,6.875,0,0,0,0,0
4.552,5.625,0,0,0,0,0
4.553,5.3125,0,0,0,0,0
4.554,4.0625,0,0,0,0,0
4.555,4.6875,0,0,0,0,0
4.556,5,0,0,0,0,0
4.557,5,0,0,0,0,0
4.558,4.5,0,0,0,0,0
4.559,5,0,0,0,0,0
4.56,4.1875,0,0,0,0,0
4.561,5,0,0,0,0,0
4.562,5.3125,0,0,0,0,0
4.563,5.9375,0,0,0,0,0
4.564,5.3125,0,0,0,0,0
4.565,5.625,0,0,0,0,0
4.566,5.3125,0,0,0,0,0
4.567,5.3125,0,0,0,0,0
4.568,5.75,0,0,0,0,0
4.569,5.625,0,0,0,0,0
4.57,5.5,0,0,0,0,0
4.571,4.6875,0,0,0,0,0
4.572,5,0,0,0,0,0
4.573,5,0,0,0,0,0
4.574,4.875,0,0,0,0,0
4.575,4.6875,0,0,0,0,0
4.576,5,0,0,0,0,0
4.577,5.625,0,0,0,0,0
4.578,5.8125,0,0,0,0,0
4.579,5.9375,0,0,0,0,0
4.58,6.0625,0,0,0,0,0
4.581,6.25,0,0,0,0,0
4.582,7,0,0,0,0,0
4.583,7.1875,0,0,0,0,0
4.584,6.5625,0,0,0,0,0
4.585,5.625,0,0,0,0,0
4.586,4.875,0,0,0,0,0
4.587,4.0625,0,0,0,0,0
4.588,3.3125,0,0,0,0,0
4.589,3.125,0,0,0,0,0
4.59,4.0625,0,0,0,0,0
4.591,4.0625,0,0,0,0,0
4.592,4.0625,0,0,0,0,0
4.593,4.6875,0,0,0,0,0
4.594,4.8125,0,0,0,0,0
4.595,5,0,0,0,0,0
4.596,4.5,0,0,0,0,0
4.597,5,0,0,0,0,0
4.598,4.375,0,0,0,0,0
4.599,4.375,0,0,0,0,0
4.6,5.125,0,0,0,0,0
4.601,5,0,0,0,0,0
4.602,4.6875,0,0,0,0,0
4.603,5,0,0,0,0,0
4.604,4.875,0,0,0,0,0
4.605,4.6875,0,0,0,0,0
4.606,4.6875,0,0,0,0,0
4.607,5,0,0,0,0,0
4.608,4.375,0,0,0,0,0
4.609,4.6875,0,0,0,0,0
4.61,4.5625,0,0,0,0,0
4.611,4.375,0,0,0,0,0
4.612,3.75,0,0,0,0,0
4.613,4.375,0,0,0,0,0
4.614,4.375,0,0,0,0,0
4.615,4.375,0,0,0,0,0
4.616,4.8125,0,0,0,0,0
4.617,5,0,0,0,0,0
4.618,5,0,0,0,0,0
4.619,5.3125,0,0,0,0,0
4.62,5.5,0,0,0,0,0
4.621,5.3125,0,0,0,0,0
4.622,3.3125,0,0,0,0,0
4.623,2.8125,0,0,0,0,0
4.624,2.8125,0,0,0,0,0
4.625,2.5,0,0,0,0,0
4.626,4.0625,0,0,0,0,0
4.627,5,0,0,0,0,0
4.628,4.8125,0,0,0,0,0
4.629,5,0,0,0,0,0
4.63,4.5625,0,0,0,0,0
4.631,3.4375,0,0,0,0,0
4.632,2.5,0,0,0,0,0
4.633,1.875,0,0,0,0,0
4.634,1.75,0,0,0,0,0
4.635,1.25,0,0,0,0,0
4.636,2,0,0,0,0,0
4.637,2.5,0,0,0,0,0
4.638,4.375,0,0,0,0,0
4.639,5.3125,0,0,0,0,0
4.64,5.4375,0,0,0,0,0
4.641,5.3125,0,0,0,0,0
4.642,5.75,0,0,0,0,0
4.643,5.9375,0,0,0,0,0
4.644,4.5625,0,0,0,0,0
4.645,3.75,0,0,0,0,0
4.646,4.0625,0,0,0,0,0
4.647,4.6875,0,0,0,0,0
4.648,4.375,0,0,0,0,0
4.649,4.6875,0,0,0,0,0
4.65,5,0,0,0,0,0
4.651,5.3125,0,0,0,0,0
4.652,5.4375,0,0,0,0,0
4.653,5.3125,0,0,0,0,0
4.654,4.875,0,0,0,0,0
4.655,5.3125,0,0,0,0,0
4.656,5.75,0,0,0,0,0
4.657,5.3125,0,0,0,0,0
4.658,5.5,0,0,0,0,0
4.659,4.6875,0,0,0,0,0
4.66,4.875,0,0,0,0,0
4.661,4.6875,0,0,0,0,0
4.662,5.5,0,0,0,0,0
4.663,5.3125,0,0,0,0,0
4.664,5.625,0,0,0,0,0
4.665,5,0,0,0,0,0
4.666,5.1875,0,0,0,0,0
4.667,5.625,0,0,0,0,0
4.668,5.125,0,0,0,0,0
4.669,5.3125,0,0,0,0,0
4.67,4.875,0,0,0,0,0
4.671,4.6875,0,0,0,0,0
4.672,4.5625,0,0,0,0,0
4.673,4.0625,0,0,0,0,0
4.674,3.625,0,0,0,0,0
4.675,3.4375,0,0,0,0,0
4.676,4.375,0,0,0,0,0
4.677,4.6875,0,0,0,0,0
4.678,4.25,0,0,0,0,0
4.679,3.75,0,0,0,0,0
4.68,4.5,0,0,0,0,0
4.681,5,0,0,0,0,0
4.682,5.9375,0,0,0,0,0
4.683,6.25,0,0,0,0,0
4.684,4.6875,0,0,0,0,0
4.685,4.375,0,0,0,0,0
4.686,4.1875,0,0,0,0,0
4.687,4.375,0,0,0,0,0
4.688,5.3125,0,0,0,0,0
4.689,5.3125,0,0,0,0,0
4.69,4.25,0,0,0,0,0
4.691,3.4375,0,0,0,0,0
4.692,4.0625,0,0,0,0,0
4.693,4.375,0,0,0,0,0
4.694,4.375,0,0,0,0,0
4.695,5,0,0,0,0,0
4.696,4.875,0,0,0,0,0
4.697,4.375,0,0,0,0,0
4.698,4.0625,0,0,0,0,0
4.699,3.4375,0,0,0,0,0
4.7,3.4375,0,0,0,0,0
4.701,3.4375,0,0,0,0,0
4.702,3.125,0,0,0,0,0
4.703,4.0625,0,0,0,0,0
4.704,4.0625,0,0,0,0,0
4.705,3.4375,0,0,0,0,0
4.706,3.625,0,0,0,0,0
4.707,3.4375,0,0,0,0,0
4.708,3.5625,0,0,0,0,0
4.709,3.4375,0,0,0,0,0
4.71,4.0625,0,0,0,0,0
4.711,4.375,0,0,0,0,0
4.712,3.625,0,0,0,0,0
4.713,3.4375,0,0,0,0,0
4.714,3.3125,0,0,0,0,0
4.715,2.8125,0,0,0,0,0
4.716,2.6875,0,0,0,0,0
4.717,1.875,0,0,0,0,0
4.718,2.5,0,0,0,0,0
4.719,3.125,0,0,0,0,0
4.72,3.75,0,0,0,0,0
4.721,4.375,0,0,0,0,0
4.722,4.5625,0,0,0,0,0
4.723,4.375,0,0,0,0,0
4.724,4.0625,0,0,0,0,0
4.725,3.4375,0,0,0,0,0
4.726,3.125,0,0,0,0,0
4.727,3.125,0,0,0,0,0
4.728,3.5625,0,0,0,0,0
4.729,3.75,0,0,0,0,0
4.73,4.1875,0,0,0,0,0
4.731,5,0,0,0,0,0
4.732,4.6875,0,0,0,0,0
4.733,4.6875,0,0,0,0,0
4.734,4.5625,0,0,0,0,0
4.735,4.6875,0,0,0,0,0
4.736,5.3125,0,0,0,0,0
4.737,5.3125,0,0,0,0,0
4.738,5.5,0,0,0,0,0
4.739,5.3125,0,0,0,0,0
4.74,4.375,0,0,0,0,0
4.741,2.8125,0,0,0,0,0
4.742,3.4375,0,0,0,0,0
4.743,3.125,0,0,0,0,0
4.744,3.4375,0,0,0,0,0
4.745,3.4375,0,0,0,0,0
4.746,3.5625,0,0,0,0,0
4.747,3.75,0,0,0,0,0
4.748,3.5625,0,0,0,0,0
4.749,4.375,0,0,0,0,0
4.75,3.4375,0,0,0,0,0
4.751,4.0625,0,0,0,0,0
4.752,5,0,0,0,0,0
4.753,5,0,0,0,0,0
4.754,5,0,0,0,0,0
4.755,5.3125,0,0,0,0,0
4.756,5.3125,0,0,0,0,0
4.757,5,0,0,0,0,0
4.758,5.1875,0,0,0,0,0
4.759,5,0,0,0,0,0
4.76,6.25,0,0,0,0,0
4.761,6.25,0,0,0,0,0
4.762,6.0625,0,0,0,0,0
4.763,6.25,0,0,0,0,0
4.764,6.75,0,0,0,0,0
4.765,6.25,0,0,0,0,0
4.766,5.1875,0,0,0,0,0
4.767,4.375,0,0,0,0,0
4.768,3.875,0,0,0,0,0
4.769,4.375,0,0,0,0,0
4.77,3.9375,0,0,0,0,0
4.771,3.125,0,0,0,0,0
4.772,2.5,0,0,0,0,0
4.773,2.5,0,0,0,0,0
4.774,2.625,0,0,0,0,0
4.775,2.8125,0,0,0,0,0
4.776,3.125,0,0,0,0,0
4.777,3.125,0,0,0,0,0
4.778,2.8125,0,0,0,0,0
4.779,2.8125,0,0,0,0,0
4.78,3.25,0,0,0,0,0
4.781,3.4375,0,0,0,0,0
4.782,3.4375,0,0,0,0,0
4.783,4.0625,0,0,0,0,0
4.784,3.9375,0,0,0,0,0
4.785,3.75,0,0,0,0,0
4.786,4.25,0,0,0,0,0
4.787,4.0625,0,0,0,0,0
4.788,3.875,0,0,0,0,0
4.789,4.0625,0,0,0,0,0
4.79,4,0,0,0,0,0
4.791,4.6875,0,0,0,0,0
4.792,4.25,0,0,0,0,0
4.793,4.375,0,0,0,0,0
4.794,3.9375,0,0,0,0,0
4.795,3.75,0,0,0,0,0
4.796,3.625,0,0,0,0,0
4.797,2.8125,0,0,0,0,0
4.798,2.8125,0,0,0,0,0
4.799,2.8125,0,0,0,0,0
4.8,4.375,0,0,0,0,0
4.801,5.9375,0,0,0,0,0
4.802,7.1875,0,0,0,0,0
4.803,8.4375,0,0,0,0,0
4.804,7.5,0,0,0,0,0
4.805,6.875,0,0,0,0,0
4.806,5.9375,0,0,0,0,0
4.807,5.625,0,0,0,0,0
4.808,5,0,0,0,0,0
4.809,4.6875,0,0,0,0,0
4.81,4.5,0,0,0,0,0
4.811,4.375,0,0,0,0,0
4.812,4.375,0,0,0,0,0
4.813,4.6875,0,0,0,0,0
4.814,3.75,0,0,0,0,0
4.815,2.5,0,0,0,0,0
4.816,3,0,0,0,0,0
4.817,3.125,0,0,0,0,0
4.818,2.8125,0,0,0,0,0
4.819,3.75,0,0,0,0,0
4.82,4.0625,0,0,0,0,0
4.821,3.75,0,0,0,0,0
4.822,3.9375,0,0,0,0,0
4.823,4.375,0,0,0,0,0
4.824,4.0625,0,0,0,0,0
4.825,3.4375,0,0,0,0,0
4.826,3.5625,0,0,0,0,0
4.827,4.0625,0,0,0,0,0
4.828,3.625,0,0,0,0,0
4.829,3.75,0,0,0,0,0
4.83,3.75,0,0,0,0,0
4.831,3.75,0,0,0,0,0
4.832,3.9375,0,0,0,0,0
4.833,3.75,0,0,0,0,0
4.834,3.4375,0,0,0,0,0
4.835,3.4375,0,0,0,0,0
4.836,2.8125,0,0,0,0,0
4.837,2.5,0,0,0,0,0
4.838,2.0625,0,0,0,0,0
4.839,1.5625,0,0,0,0,0
4.84,2.0625,0,0,0,0,0
4.841,1.875,0,0,0,0,0
4.842,3.125,0,0,0,0,0
4.843,3.125,0,0,0,0,0
4.844,4.0625,0,0,0,0,0
4.845,4.375,0,0,0,0,0
4.846,4.375,0,0,0,0,0
4.847,4.6875,0,0,0,0,0
4.848,4.6875,0,0,0,0,0
4.849,4.6875,0,0,0,0,0
4.85,5,0,0,0,0,0
4.851,5,0,0,0,0,0
4.852,4.8125,0,0,0,0,0
4.853,5,0,0,0,0,0
4.854,4.375,0,0,0,0,0
4.855,4.0625,0,0,0,0,0
4.856,4.5625,0,0,0,0,0
4.857,4.6875,0,0,0,0,0
4.858,5.125,0,0,0,0,0
4.859,5,0,0,0,0,0
4.86,4.6875,0,0,0,0,0
4.861,5,0,0,0,0,0
4.862,5.3125,0,0,0,0,0
4.863,5.9375,0,0,0,0,0
4.864,5.625,0,0,0,0,0
4.865,5,0,0,0,0,0
4.866,4.5625,0,0,0,0,0
4.867,3.125,0,0,0,0,0
4.868,3.4375,0,0,0,0,0
4.869,3.4375,0,0,0,0,0
4.87,3.5625,0,0,0,0,0
4.871,3.75,0,0,0,0,0
4.872,3,0,0,0,0,0
4.873,3.125,0,0,0,0,0
4.874,3.75,0,0,0,0,0
4.875,4.0625,0,0,0,0,0
4.876,4.1875,0,0,0,0,0
4.877,5,0,0,0,0,0
4.878,4.5625,0,0,0,0,0
4.879,4.375,0,0,0,0,0
4.88,4.375,0,0,0,0,0
4.881,4.375,0,0,0,0,0
4.882,5,0,0,0,0,0
4.883,5.3125,0,0,0,0,0
4.884,5.125,0,0,0,0,0
4.885,5.3125,0,0,0,0,0
4.886,4.0625,0,0,0,0,0
4.887,3.125,0,0,0,0,0
4.888,3.25,0,0,0,0,0
4.889,3.125,0,0,0,0,0
4.89,3.75,0,0,0,0,0
4.891,5.3125,0,0,0,0,0
4.892,4.875,0,0,0,0,0
4.893,4.375,0,0,0,0,0
4.894,3.9375,0,0,0,0,0
4.895,4.0625,0,0,0,0,0
4.896,5,0,0,0,0,0
4.897,4.6875,0,0,0,0,0
4.898,5.3125,0,0,0,0,0
4.899,5,0,0,0,0,0
4.9,4.5625,0,0,0,0,0
4.901,4.375,0,0,0,0,0
4.902,4.875,0,0,0,0,0
4.903,5.3125,0,0,0,0,0
4.904,5.9375,0,0,0,0,0
4.905,5.625,0,0,0,0,0
4.906,5.75,0,0,0,0,0
4.907,6.5625,0,0,0,0,0
4.908,7.1875,0,0,0,0,0
4.909,7.5,0,0,0,0,0
4.91,6.5625,0,0,0,0,0
4.911,7.1875,0,0,0,0,0
4.912,7.9375,0,0,0,0,0
4.913,7.8125,0,0,0,0,0
4.914,6.4375,0,0,0,0,0
4.915,5.9375,0,0,0,0,0
4.916,5.3125,0,0,0,0,0
4.917,4.375,0,0,0,0,0
4.918,5,0,0,0,0,0
4.919,5.625,0,0,0,0,0
4.92,6.0625,0,0,0,0,0
4.921,6.25,0,0,0,0,0
4.922,5.8125,0,0,0,0,0
4.923,5.9375,0,0,0,0,0
4.924,6.5625,0,0,0,0,0
4.925,6.25,0,0,0,0,0
4.926,6.125,0,0,0,0,0
4.927,5.3125,0,0,0,0,0
4.928,5.625,0,0,0,0,0
4.929,5.3125,0,0,0,0,0
4.93,5.3125,0,0,0,0,0
4.931,5.3125,0,0,0,0,0
4.932,5.3125,0,0,0,0,0
4.933,5.3125,0,0,0,0,0
4.934,5.625,0,0,0,0,0
4.935,6.25,0,0,0,0,0
4.936,6.4375,0,0,0,0,0
4.937,5.9375,0,0,0,0,0
4.938,6.0625,0,0,0,0,0
4.939,7.1875,0,0,0,0,0
4.94,7.625,0,0,0,0,0
4.941,7.8125,0,0,0,0,0
4.942,7.375,0,0,0,0,0
4.943,6.875,0,0,0,0,0
4.944,6.25,0,0,0,0,0
4.945,5,0,0,0,0,0
4.946,5.75,0,0,0,0,0
4.947,5.9375,0,0,0,0,0
4.948,5.625,0,0,0,0,0
4.949,6.5625,0,0,0,0,0
4.95,7.0625,0,0,0,0,0
4.951,6.875,0,0,0,0,0
4.952,6.25,0,0,0,0,0
4.953,6.5625,0,0,0,0,0
4.954,7,0,0,0,0,0
4.955,6.875,0,0,0,0,0
4.956,6.75,0,0,0,0,0
4.957,6.875,0,0,0,0,0
4.958,7.0625,0,0,0,0,0
4.959,6.875,0,0,0,0,0
4.96,6.875,0,0,0,0,0
4.961,7.5,0,0,0,0,0
4.962,7.5,0,0,0,0,0
4.963,7.5,0,0,0,0,0
4.964,7.8125,0,0,0,0,0
4.965,8.125,0,0,0,0,0
4.966,7.5,0,0,0,0,0
4.967,7.5,0,0,0,0,0
4.968,7.8125,0,0,0,0,0
4.969,7.8125,0,0,0,0,0
4.97,6.5625,0,0,0,0,0
4.971,5.625,0,0,0,0,0
4.972,5.5,0,0,0,0,0
4.973,5.625,0,0,0,0,0
4.974,5.9375,0,0,0,0,0
4.975,6.25,0,0,0,0,0
4.976,7.1875,0,0,0,0,0
4.977,7.8125,0,0,0,0,0
4.978,7.8125,0,0,0,0,0
4.979,8.75,0,0,0,0,0
4.98,8.9375,0,0,0,0,0
4.981,8.4375,0,0,0,0,0
4.982,6.875,0,0,0,0,0
4.983,5.3125,0,0,0,0,0
4.984,5.1875,0,0,0,0,0
4.985,4.6875,0,0,0,0,0
4.986,3.625,0,0,0,0,0
4.987,2.5,0,0,0,0,0
4.988,2.375,0,0,0,0,0
4.989,3.125,0,0,0,0,0
4.99,3.5625,0,0,0,0,0
4.991,4.375,0,0,0,0,0
4.992,4.6875,0,0,0,0,0
4.993,4.0625,0,0,0,0,0
4.994,3.875,0,0,0,0,0
4.995,3.75,0,0,0,0,0
4.996,3.625,0,0,0,0,0
4.997,3.4375,0,0,0,0,0
4.998,4.6875,0,0,0,0,0
4.999,5.3125,0,0,0,0,0
5,5.4375,0,0,0,0,0
5.001,5.9375,0,0,0,0,0
5.002,5.625,0,0,0,0,0
5.003,4.6875,0,0,0,0,0
5.004,5,0,0,0,0,0
5.005,4.6875,0,0,0,0,0
5.006,3.9375,0,0,0,0,0
5.007,4.375,0,0,0,0,0
5.008,4.8125,0,0,0,0,0
5.009,5.625,0,0,0,0,0
5.01,5.3125,0,0,0,0,0
5.011,5.9375,0,0,0,0,0
5.012,5.625,0,0,0,0,0
5.013,5.625,0,0,0,0,0
5.014,5.625,0,0,0,0,0
5.015,5.3125,0,0,0,0,0
5.016,5.5,0,0,0,0,0
5.017,4.6875,0,0,0,0,0
5.018,4.0625,0,0,0,0,0
5.019,4.0625,0,0,0,0,0
5.02,3.75,0,0,0,0,0
5.021,3.4375,0,0,0,0,0
5.022,2.625,0,0,0,0,0
5.023,2.8125,0,0,0,0,0
5.024,2.8125,0,0,0,0,0
5.025,1.875,0,0,0,0,0
5.026,2,0,0,0,0,0
5.027,1.875,0,0,0,0,0
5.028,2.9375,0,0,0,0,0
5.029,3.75,0,0,0,0,0
5.03,3.4375,0,0,0,0,0
5.031,3.75,0,0,0,0,0
5.032,3.4375,0,0,0,0,0
5.033,3.125,0,0,0,0,0
5.034,2.6875,0,0,0,0,0
5.035,2.8125,0,0,0,0,0
5.036,3.4375,0,0,0,0,0
5.037,3.75,0,0,0,0,0
5.038,3.3125,0,0,0,0,0
5.039,2.5,0,0,0,0,0
5.04,3.125,0,0,0,0,0
5.041,4.0625,0,0,0,0,0
5.042,3.9375,0,0,0,0,0
5.043,3.4375,0,0,0,0,0
5.044,4.0625,0,0,0,0,0
5.045,3.4375,0,0,0,0,0
5.046,3,0,0,0,0,0
5.047,2.1875,0,0,0,0,0
5.048,1.875,0,0,0,0,0
5.049,2.5,0,0,0,0,0
5.05,1.875,0,0,0,0,0
5.051,1.25,0,0,0,0,0
5.052,2.0625,0,0,0,0,0
5.053,2.1875,0,0,0,0,0
5.054,2,0,0,0,0,0
5.055,2.1875,0,0,0,0,0
5.056,2.625,0,0,0,0,0
5.057,3.125,0,0,0,0,0
5.058,3.75,0,0,0,0,0
5.059,4.6875,0,0,0,0,0
5.06,5.75,0,0,0,0,0
5.061,6.25,0,0,0,0,0
5.062,4.5625,0,0,0,0,0
5.063,3.4375,0,0,0,0,0
5.064,2.375,0,0,0,0,0
5.065,1.25,0,0,0,0,0
5.066,2.3125,0,0,0,0,0
5.067,3.125,0,0,0,0,0
5.068,4.1875,0,0,0,0,0
5.069,5.3125,0,0,0,0,0
5.07,6.0625,0,0,0,0,0
5.071,7.1875,0,0,0,0,0
5.072,5.625,0,0,0,0,0
5.073,5,0,0,0,0,0
5.074,4.0625,0,0,0,0,0
5.075,3.75,0,0,0,0,0
5.076,3.4375,0,0,0,0,0
5.077,2.5,0,0,0,0,0
5.078,1.5625,0,0,0,0,0
5.079,0.3125,0,0,0,0,0
5.08,0.9375,0,0,0,0,0
5.081,1.25,1,0,0,0,0
5.082,1.6875,0,0,0,0,0
5.083,1.875,0,0,0,0,0
5.084,2.9375,0,0,0,0,0
5.085,3.125,0,0,0,0,0
5.086,3.75,0,0,0,0,0
5.087,4.375,0,0,0,0,0
5.088,3.9375,0,0,0,0,0
5.089,3.75,0,0,0,0,0
5.09,3.4375,0,0,0,0,0
5.091,3.4375,0,0,0,0,0
5.092,3.75,0,0,0,0,0
5.093,4.375,0,0,0,0,0
5.094,4.1875,0,0,0,0,0
5.095,5,0,0,0,0,0
5.096,5.3125,0,0,0,0,0
5.097,5.9375,0,0,0,0,0
5.098,6.375,0,0,0,0,0
5.099,6.25,0,0,0,0,0
5.1,5.9375,0,0,0,0,0
5.101,6.5625,0,0,0,0,0
5.102,5.5,0,0,0,0,0
5.103,5.9375,0,0,0,0,0
5.104,6.5625,0,0,0,0,0
5.105,6.25,0,0,0,0,0
5.106,7,0,0,0,0,0
5.107,8.125,0,0,0,0,0
5.108,8.4375,0,0,0,0,0
5.109,8.75,0,0,0,0,0
5.11,9.1875,0,0,0,0,0
5.111,10.313,0,0,0,0,0
5.112,11.688,0,0,0,0,0
5.113,12.813,0,0,0,0,0
5.114,13.25,0,0,0,0,0
5.115,13.75,0,0,0,0,0
5.116,14.063,0,0,0,0,0
5.117,15,0,0,0,0,0
5.118,15.5,0,0,0,0,0
5.119,15.938,0,0,0,0,0
5.12,16.25,0,0,0,0,0
5.121,16.875,0,0,0,0,0
5.122,18.125,0,0,0,0,0
5.123,19.375,0,0,0,0,0
5.124,19.688,0,0,0,0,0
5.125,20,0,0,0,0,0
5.126,23.563,0,0,0,0,0
5.127,26.563,0,0,0,0,0
5.128,27.188,0,0,0,0,0
5.129,29.063,0,0,0,0,0
5.13,29.563,0,0,0,0,0
5.131,29.688,0,0,0,0,0
5.132,29.375,0,0,0,0,0
5.133,29.688,0,0,0,0,0
5.134,30,0,0,0,0,0
5.135,30.625,0,0,0,0,0
5.136,31.875,0,0,0,0,0
5.137,32.5,0,0,0,0,0
5.138,33.75,0,0,0,0,0
5.139,34.375,0,1,0,0,0
5.14,35.313,0,0,0,0,0
5.141,35.938,0,0,0,0,0
5.142,35.938,0,0,0,0,0
5.143,35.313,0,0,0,0,0
5.144,33.938,0,0,0,0,0
5.145,30.938,0,0,0,0,0
5.146,26.563,0,0,0,0,0
5.147,22.188,0,0,0,0,0
5.148,19.375,0,0,0,0,0
5.149,16.25,0,0,0,0,0
5.15,12.813,0,0,0,0,0
5.151,10.313,0,0,0,0,0
5.152,7.5,0,0,0,0,0
5.153,3.75,0,0,0,0,0
5.154,0.9375,0,0,0,0,0
5.155,-1.5625,0,0,0,0,0
5.156,-3.625,0,0,0,0,0
5.157,-4.375,0,0,0,0,0
5.158,-4.6875,0,0,0,0,0
5.159,-5.3125,0,0,0,0,0
5.16,-6.25,0,0,0,0,0
5.161,-6.875,0,0,0,0,0
5.162,-7.1875,0,0,0,0,0
5.163,-7.8125,0,0,0,0,0
5.164,-7.0625,0,0,0,0,0
5.165,-6.5625,0,0,0,0,0
5.166,-5.9375,0,0,0,0,0
5.167,-4.375,0,0,0,0,0
5.168,-2.5,0,0,0,0,0
5.169,-0.625,0,0,0,0,0
5.17,0.5,0,0,0,0,0
5.171,0.9375,0,0,0,0,0
5.172,0.8125,0,0,0,0,0
5.173,0.625,0,0,1,0,0
5.174,2,0,0,0,0,0
5.175,3.125,0,0,0,0,0
5.176,4.1875,0,0,0,0,0
5.177,4.375,0,0,0,0,0
5.178,5.3125,0,0,0,0,0
5.179,5.625,0,0,0,0,0
5.18,5.5,0,0,0,0,0
5.181,4.6875,0,0,0,0,0
5.182,3.3125,0,0,0,0,0
5.183,2.5,0,0,0,0,0
5.184,2.5,0,0,0,0,0
5.185,1.875,0,0,0,0,0
5.186,1.6875,0,0,0,0,0
5.187,2.5,0,0,0,0,0
5.188,2.9375,0,0,0,0,0
5.189,3.75,0,0,0,0,0
5.19,3.875,0,0,0,0,0
5.191,4.0625,0,0,0,0,0
5.192,3.4375,0,0,0,0,0
5.193,3.125,0,0,0,0,0
5.194,2.6875,0,0,0,0,0
5.195,2.5,0,0,0,0,0
5.196,2.375,0,0,0,0,0
5.197,2.1875,0,0,0,0,0
5.198,2.8125,0,0,0,0,0
5.199,2.8125,0,0,0,0,0
5.2,2.3125,0,0,0,0,0
5.201,2.1875,0,0,0,0,0
5.202,2.625,0,0,0,0,0
5.203,2.8125,0,0,0,0,0
5.204,3,0,0,0,0,0
5.205,2.8125,0,0,0,0,0
5.206,2.6875,0,0,0,0,0
5.207,1.5625,0,0,0,0,0
5.208,1.75,0,0,0,0,0
5.209,1.5625,0,0,0,0,0
5.21,1.5625,0,0,0,0,0
5.211,2.5,0,0,0,0,0
5.212,2.5,0,0,0,0,0
5.213,2.8125,0,0,0,0,0
5.214,2.5,0,0,0,0,0
5.215,1.875,0,0,0,0,0
5.216,1.75,0,0,0,0,0
5.217,0.9375,0,0,0,0,0
5.218,0.75,0,0,0,0,0
5.219,0.9375,0,0,0,0,0
5.22,1.6875,0,0,0,0,0
5.221,1.25,0,0,0,0,0
5.222,1.4375,0,0,0,0,0
5.223,1.25,0,0,0,0,0
5.224,1.5625,0,0,0,0,0
5.225,1.5625,0,0,0,0,0
5.226,1.125,0,0,0,0,0
5.227,0.625,0,0,0,0,0
5.228,1.0625,0,0,0,0,0
5.229,1.5625,0,0,0,0,0
5.23,1.6875,0,0,0,0,0
5.231,2.5,0,0,0,0,0
5.232,2.625,0,0,0,0,0
5.233,3.125,0,0,0,0,0
5.234,2.6875,0,0,0,0,0
5.235,2.1875,0,0,0,0,0
5.236,2.5,0,0,0,0,0
5.237,2.5,0,0,0,0,0
5.238,2.9375,0,0,0,0,0
5.239,3.125,0,0,0,0,0
5.24,3.75,0,0,0,0,0
5.241,4.375,0,0,0,0,0
5.242,4.1875,0,0,0,0,0
5.243,4.0625,0,0,0,0,0
5.244,4.25,0,0,0,0,0
5.245,3.75,0,0,0,0,0
5.246,4.0625,0,0,0,0,0
5.247,4.375,0,0,0,0,0
5.248,5.4375,0,0,0,0,0
5.249,5.9375,0,0,0,0,0
5.25,3.9375,0,0,0,0,0
5.251,2.8125,0,0,0,0,0
5.252,1.875,0,0,0,0,0
5.253,0.625,0,0,0,0,0
5.254,1.0625,0,0,0,0,0
5.255,0.9375,0,0,0,0,0
5.256,0,0,0,0,0,0
5.257,0.3125,0,0,0,0,0
5.258,0.1875,0,0,0,0,0
5.259,0,0,0,0,0,0
5.26,-0.75,0,0,0,0,0
5.261,-0.9375,0,0,0,0,0
5.262,-0.625,0,0,0,0,0
5.263,-0.9375,0,0,0,0,0
5.264,0.3125,0,0,0,0,0
5.265,0.625,0,0,0,0,0
5.266,0.4375,0,0,0,0,0
5.267,0.625,0,0,0,0,0
5.268,1.6875,0,0,0,0,0
5.269,2.1875,0,0,0,0,0
5.27,2.3125,0,0,0,0,0
5.271,3.125,0,0,0,0,0
5.272,3.125,0,0,0,0,0
5.273,3.4375,0,0,0,0,0
5.274,2.5,0,0,0,0,0
5.275,2.8125,0,0,0,0,0
5.276,3,0,0,0,0,0
5.277,2.8125,0,0,0,0,0
5.278,2.9375,0,0,0,0,0
5.279,2.8125,0,0,0,0,0
5.28,4.1875,0,0,0,0,0
5.281,4.6875,0,0,0,0,0
5.282,3.9375,0,0,0,0,0
5.283,4.375,0,0,0,0,0
5.284,2.0625,0,0,0,0,0
5.285,-0.625,0,0,0,0,0
5.286,-0.625,0,0,0,0,0
5.287,-0.9375,0,0,0,0,0
5.288,0,0,0,0,0,0
5.289,0.9375,0,0,0,0,0
5.29,0.75,0,0,0,0,0
5.291,1.25,0,0,0,0,0
5.292,0.9375,0,0,0,0,0
5.293,1.25,0,0,0,0,0
5.294,2.5,0,0,0,0,0
5.295,2.8125,0,0,0,0,0
5.296,3.125,0,0,0,0,0
5.297,3.4375,0,0,0,0,0
5.298,3.25,0,0,0,0,0
5.299,3.125,0,0,0,0,0
5.3,3.4375,0,0,0,0,0
5.301,2.1875,0,0,0,0,0
5.302,1.5625,0,0,0,0,0
5.303,1.875,0,0,0,0,0
5.304,2.1875,0,0,0,0,0
5.305,2.5,0,0,0,0,0
5.306,2.9375,0,0,0,0,0
5.307,2.5,0,0,0,0,0
5.308,2.0625,0,0,0,0,0
5.309,1.875,0,0,0,0,0
5.31,2.1875,0,0,0,0,0
5.311,1.875,0,0,0,0,0
5.312,1.6875,0,0,0,0,0
5.313,1.5625,0,0,0,0,0
5.314,2.3125,0,0,0,0,0
5.315,2.8125,0,0,0,0,0
5.316,2.625,0,0,0,0,0
5.317,2.8125,0,0,0,0,0
5.318,2.375,0,0,0,0,0
5.319,1.875,0,0,0,0,0
5.32,2,0,0,0,0,0
5.321,1.5625,0,0,0,0,0
5.322,2.8125,0,0,0,0,0
5.323,3.75,0,0,0,0,0
5.324,2.5,0,0,0,0,0
5.325,1.875,0,0,0,0,0
5.326,1.6875,0,0,0,0,0
5.327,1.5625,0,0,0,0,0
5.328,2,0,0,0,0,0
5.329,2.1875,0,0,0,0,0
5.33,2.1875,0,0,0,0,0
5.331,2.5,0,0,0,0,0
5.332,2.8125,0,0,0,0,0
5.333,2.8125,0,0,0,0,0
5.334,2.9375,0,0,0,0,0
5.335,3.4375,0,0,0,0,0
5.336,4.0625,0,0,0,0,0
5.337,4.375,0,0,0,0,0
5.338,4.375,0,0,0,0,0
5.339,4.0625,0,0,0,0,0
5.34,4.25,0,0,0,0,0
5.341,4.375,0,0,0,0,0
5.342,4.375,0,0,0,0,0
5.343,3.75,0,0,0,0,0
5.344,2.6875,0,0,0,0,0
5.345,0.9375,0,0,0,0,0
5.346,0.5,0,0,0,0,0
5.347,0,0,0,0,0,0
5.348,1.25,0,0,0,0,0
5.349,0.9375,0,0,0,0,0
5.35,0.75,0,0,0,0,0
5.351,0.3125,0,0,0,0,0
5.352,0.8125,0,0,0,0,0
5.353,0.9375,0,0,0,0,0
5.354,0.625,0,0,0,0,0
5.355,1.25,0,0,0,0,0
5.356,1.6875,0,0,0,0,0
5.357,2.5,0,0,0,0,0
5.358,2.5,0,0,0,0,0
5.359,2.8125,0,0,0,0,0
5.36,3.625,0,0,0,0,0
5.361,3.125,0,0,0,0,0
5.362,2.8125,0,0,0,0,0
5.363,3.125,0,0,0,0,0
5.364,2.6875,0,0,0,0,0
5.365,2.8125,0,0,0,0,0
5.366,2.5,0,0,0,0,0
5.367,2.1875,0,0,0,0,0
5.368,3.125,0,0,0,0,0
5.369,3.75,0,0,0,0,0
5.37,3.5625,0,0,0,0,0
5.371,4.0625,0,0,0,0,0
5.372,4.1875,0,0,0,0,0
5.373,4.375,0,0,0,0,0
5.374,4.6875,0,0,0,0,0
5.375,5.3125,0,0,0,0,0
5.376,5.625,0,0,0,0,0
5.377,5.625,0,0,0,0,0
5.378,5,0,0,0,0,0
5.379,4.0625,0,0,0,0,0
5.38,3.875,0,0,0,0,0
5.381,4.0625,0,0,0,0,0
5.382,3.4375,0,0,0,0,0
5.383,3.75,0,0,0,0,0
5.384,3.625,0,0,0,0,0
5.385,3.4375,0,0,0,0,0
5.386,4.0625,0,0,0,0,0
5.387,4.0625,0,0,0,0,0
5.388,3.75,0,0,0,0,0
5.389,4.0625,0,0,0,0,0
5.39,3.625,0,0,0,0,0
5.391,3.125,0,0,0,0,0
5.392,2.5,0,0,0,0,0
5.393,2.5,0,0,0,0,0
5.394,3.125,0,0,0,0,0
5.395,3.125,0,0,0,0,0
5.396,3.25,0,0,0,0,0
5.397,3.75,0,0,0,0,0
5.398,3.9375,0,0,0,0,0
5.399,4.375,0,0,0,0,0
5.4,5,0,0,0,0,0
5.401,5.9375,0,0,0,0,0
5.402,7.3125,0,0,0,0,0
5.403,8.125,0,0,0,0,0
5.404,8.4375,0,0,0,0,0
5.405,8.125,0,0,0,0,0
5.406,7.0625,0,0,0,0,0
5.407,5.625,0,0,0,0,0
5.408,6.5625,0,0,0,0,0
5.409,6.5625,0,0,0,0,0
5.41,6.6875,0,0,0,0,0
5.411,7.8125,0,0,0,0,0
5.412,8.4375,0,0,0,0,0
5.413,8.4375,0,0,0,0,0
5.414,7.375,0,0,0,0,0
5.415,6.5625,0,0,0,0,0
5.416,5.625,0,0,0,0,0
5.417,5.3125,0,0,0,0,0
5.418,5.5,0,0,0,0,0
5.419,5.625,0,0,0,0,0
5.42,6.0625,0,0,0,0,0
5.421,6.5625,0,0,0,0,0
5.422,6.375,0,0,0,0,0
5.423,6.875,0,0,0,0,0
5.424,6.875,0,0,0,0,0
5.425,6.875,0,0,0,0,0
5.426,6.4375,0,0,0,0,0
5.427,6.5625,0,0,0,0,0
5.428,6.875,0,0,0,0,0
5.429,6.5625,0,0,0,0,0
5.43,6.4375,0,0,0,0,0
5.431,6.875,0,0,0,0,0
5.432,6.25,0,0,0,0,0
5.433,5.9375,0,0,0,0,0
5.434,6.125,0,0,0,0,0
5.435,6.5625,0,0,0,0,0
5.436,6.25,0,0,0,0,0
5.437,6.5625,0,0,0,0,0
5.438,6.5625,0,0,0,0,0
5.439,6.5625,0,0,0,0,0
5.44,7.5,0,0,0,0,0
5.441,7.1875,0,0,0,0,0
5.442,7.1875,0,0,0,0,0
5.443,7.1875,0,0,0,0,0
5.444,7.8125,0,0,0,0,0
5.445,7.1875,0,0,0,0,0
5.446,6.75,0,0,0,0,0
5.447,7.1875,0,0,0,0,0
5.448,7.8125,0,0,0,0,0
5.449,7.8125,0,0,0,0,0
5.45,7.1875,0,0,0,0,0
5.451,7.1875,0,0,0,0,0
5.452,7.375,0,0,0,0,0
5.453,6.875,0,0,0,0,0
5.454,8.25,0,0,0,0,0
5.455,9.0625,0,0,0,0,0
5.456,9.5,0,0,0,0,0
5.457,9.0625,0,0,0,0,0
5.458,8.4375,0,0,0,0,0
5.459,8.4375,0,0,0,0,0
5.46,9.5,0,0,0,0,0
5.461,10.313,0,0,0,0,0
5.462,10,0,0,0,0,0
5.463,10.313,0,0,0,0,0
5.464,9.875,0,0,0,0,0
