0,8.4375,0,0,0,0,0
0.001,8.125,0,0,0,0,0
0.002,7.8125,0,0,0,0,0
0.003,7.5,0,0,0,0,0
0.004,7.5,0,0,0,0,0
0.005,7.5,0,0,0,0,0
0.006,7.5,0,0,0,0,0
0.007,7.5,0,0,0,0,0
0.008,7.5,0,0,0,0,0
0.009,7.5,0,0,0,0,0
0.01,7.5,0,0,0,0,0
0.011,7.5,0,0,0,0,0
0.012,7.5,0,0,0,0,0
0.013,7.5,0,0,0,0,0
0.014,7.5,0,0,0,0,0
0.015,7.5,0,0,0,0,0
0.016,8.125,0,0,0,0,0
0.017,8.75,0,0,0,0,0
0.018,8.75,0,0,0,0,0
0.019,8.75,0,0,0,0,0
0.02,9.375,0,0,0,0,0
0.021,10,0,0,0,0,0
0.022,10,0,0,0,0,0
0.023,10,0,0,0,0,0
0.024,10.313,0,0,0,0,0
0.025,10.625,0,0,0,0,0
0.026,10.625,0,0,0,0,0
0.027,10.625,0,0,0,0,0
0.028,10.313,0,0,0,0,0
0.029,10,0,0,0,0,0
0.03,10,0,0,0,0,0
0.031,10,0,0,0,0,0
0.032,10,0,0,0,0,0
0.033,10,0,0,0,0,0
0.034,9.6875,0,0,0,0,0
0.035,9.375,0,0,0,0,0
0.036,9.6875,0,0,0,0,0
0.037,10,0,0,0,0,0
0.038,10,0,0,0,0,0
0.039,10,0,0,0,0,0
0.04,9.6875,0,0,0,0,0
0.041,9.375,0,0,0,0,0
0.042,9.0625,0,0,0,0,0
0.043,8.75,0,0,0,0,0
0.044,9.0625,0,0,0,0,0
0.045,9.375,0,0,0,0,0
0.046,9.6875,0,0,0,0,0
0.047,10,0,0,0,0,0
0.048,10.313,0,0,0,0,0
0.049,10.625,0,0,0,0,0
0.05,10.625,0,0,0,0,0
0.051,10.625,0,0,0,0,0
0.052,10.625,0,0,0,0,0
0.053,10.625,0,0,0,0,0
0.054,10.938,0,0,0,0,0
0.055,11.25,0,0,0,0,0
0.056,10.938,0,0,0,0,0
0.057,10.625,0,0,0,0,0
0.058,10.938,0,0,0,0,0
0.059,11.25,0,0,0,0,0
0.06,11.25,0,0,0,0,0
0.061,11.25,0,0,0,0,0
0.062,11.25,0,0,0,0,0
0.063,11.25,0,0,0,0,0
0.064,10.938,0,0,0,0,0
0.065,10.625,0,0,0,0,0
0.066,11.563,0,0,0,0,0
0.067,12.5,0,0,0,0,0
0.068,12.5,0,0,0,0,0
0.069,12.5,0,0,0,0,0
0.07,12.5,0,0,0,0,0
0.071,12.5,0,0,0,0,0
0.072,13.125,0,0,0,0,0
0.073,13.75,0,0,0,0,0
0.074,13.438,0,0,0,0,0
0.075,13.125,0,0,0,0,0
0.076,13.125,0,0,0,0,0
0.077,13.125,0,0,0,0,0
0.078,13.438,0,0,0,0,0
0.079,13.75,0,0,0,0,0
0.08,13.75,0,0,0,0,0
0.081,13.75,0,0,0,0,0
0.082,14.063,0,0,0,0,0
0.083,14.375,0,0,0,0,0
0.084,14.063,0,0,0,0,0
0.085,13.75,0,0,0,0,0
0.086,14.063,0,0,0,0,0
0.087,14.375,0,0,0,0,0
0.088,14.063,0,0,0,0,0
0.089,13.75,0,0,0,0,0
0.09,14.063,0,0,0,0,0
0.091,14.375,0,0,0,0,0
0.092,15,0,0,0,0,0
0.093,15.625,0,0,0,0,0
0.094,15.938,0,0,0,0,0
0.095,16.25,0,0,0,0,0
0.096,15.938,0,0,0,0,0
0.097,15.625,0,0,0,0,0
0.098,15.938,0,0,0,0,0
0.099,16.25,0,0,0,0,0
0.1,16.563,0,0,0,0,0
0.101,16.875,0,0,0,0,0
0.102,17.188,0,0,0,0,0
0.103,17.5,0,0,0,0,0
0.104,17.5,0,0,0,0,0
0.105,17.5,0,0,0,0,0
0.106,17.813,0,0,0,0,0
0.107,18.125,0,0,0,0,0
0.108,18.125,0,0,0,0,0
0.109,18.125,0,0,0,0,0
0.11,17.813,0,0,0,0,0
0.111,17.5,0,0,0,0,0
0.112,18.438,0,0,0,0,0
0.113,19.375,0,0,0,0,0
0.114,19.375,0,0,0,0,0
0.115,19.375,0,0,0,0,0
0.116,19.375,0,0,0,0,0
0.117,19.375,0,0,0,0,0
0.118,19.375,0,0,0,0,0
0.119,19.375,0,0,0,0,0
0.12,19.375,0,0,0,0,0
0.121,19.375,0,0,0,0,0
0.122,19.375,0,0,0,0,0
0.123,19.375,0,0,0,0,0
0.124,20,0,0,0,0,0
0.125,20.625,0,0,0,0,0
0.126,20.938,0,0,0,0,0
0.127,21.25,0,0,0,0,0
0.128,21.25,0,0,0,0,0
0.129,21.25,0,0,0,0,0
0.13,21.25,0,0,0,0,0
0.131,21.25,0,0,0,0,0
0.132,21.563,0,0,0,0,0
0.133,21.875,0,0,0,0,0
0.134,22.188,0,0,0,0,0
0.135,22.5,0,0,0,0,0
0.136,22.188,0,0,0,0,0
0.137,21.875,0,0,0,0,0
0.138,22.188,0,0,0,0,0
0.139,22.5,0,0,0,0,0
0.14,22.188,0,0,0,0,0
0.141,21.875,0,0,0,0,0
0.142,21.875,0,0,0,0,0
0.143,21.875,0,0,0,0,0
0.144,22.188,0,0,0,0,0
0.145,22.5,0,0,0,0,0
0.146,22.5,0,0,0,0,0
0.147,22.5,0,0,0,0,0
0.148,22.5,0,0,0,0,0
0.149,22.5,0,0,0,0,0
0.15,22.813,0,0,0,0,0
0.151,23.125,0,0,0,0,0
0.152,23.125,0,0,0,0,0
0.153,23.125,0,0,0,1,0
0.154,23.125,0,0,0,0,0
0.155,23.125,0,0,0,0,0
0.156,23.438,0,0,0,0,0
0.157,23.75,0,0,0,0,0
0.158,23.438,0,0,0,0,0
0.159,23.125,0,0,0,0,0
0.16,23.438,0,0,0,0,0
0.161,23.75,0,0,0,0,0
0.162,23.125,0,0,0,0,0
0.163,22.5,0,0,0,0,0
0.164,22.188,0,0,0,0,0
0.165,21.875,0,0,0,0,0
0.166,21.875,0,0,0,0,0
0.167,21.875,0,0,0,0,0
0.168,21.25,0,0,0,0,0
0.169,20.625,0,0,0,0,0
0.17,20.625,0,0,0,0,0
0.171,20.625,0,0,0,0,0
0.172,20.625,0,0,0,0,0
0.173,20.625,0,0,0,0,0
0.174,20.313,0,0,0,0,0
0.175,20,0,0,0,0,0
0.176,19.375,0,0,0,0,0
0.177,18.75,0,0,0,0,0
0.178,18.438,0,0,0,0,0
0.179,18.125,0,0,0,0,0
0.18,18.438,0,0,0,0,0
0.181,18.75,0,0,0,0,0
0.182,18.438,0,0,0,0,0
0.183,18.125,0,0,0,0,0
0.184,17.5,0,0,0,0,0
0.185,16.875,0,0,0,0,0
0.186,16.875,0,0,0,0,0
0.187,16.875,0,0,0,0,0
0.188,16.25,0,0,0,0,0
0.189,15.625,0,0,0,0,0
0.19,15,0,0,0,0,0
0.191,14.375,0,0,0,0,0
0.192,14.375,0,0,0,0,0
0.193,14.375,0,0,0,0,0
0.194,14.063,0,0,0,0,0
0.195,13.75,0,0,0,0,0
0.196,13.438,0,0,0,0,0
0.197,13.125,0,0,0,0,0
0.198,12.813,0,0,0,0,0
0.199,12.5,0,0,0,0,0
0.2,12.188,0,0,0,0,0
0.201,11.875,0,0,0,0,0
0.202,11.25,0,0,0,0,0
0.203,10.625,0,0,0,0,0
0.204,10.313,0,0,0,0,0
0.205,10,0,0,0,0,0
0.206,9.6875,0,0,0,0,0
0.207,9.375,0,0,0,0,0
0.208,9.375,0,0,0,0,0
0.209,9.375,0,0,0,0,0
0.21,9.375,0,0,0,0,0
0.211,9.375,0,0,0,0,0
0.212,8.75,0,0,0,0,0
0.213,8.125,0,0,0,0,0
0.214,7.8125,0,0,0,0,0
0.215,7.5,0,0,0,0,0
0.216,6.875,0,0,0,0,0
0.217,6.25,0,0,0,0,0
0.218,6.25,0,0,0,0,0
0.219,6.25,0,0,0,0,0
0.22,5.9375,0,0,0,0,0
0.221,5.625,0,0,0,0,0
0.222,5,0,0,0,0,0
0.223,4.375,0,0,0,0,0
0.224,4.375,0,0,0,0,0
0.225,4.375,0,0,0,0,0
0.226,4.375,0,0,0,0,0
0.227,4.375,0,0,0,0,0
0.228,3.75,0,0,0,0,0
0.229,3.125,0,0,0,0,0
0.23,3.4375,0,0,0,0,0
0.231,3.75,0,0,0,0,0
0.232,3.4375,0,0,0,0,0
0.233,3.125,0,0,0,0,0
0.234,3.125,0,0,0,0,0
0.235,3.125,0,0,0,0,0
0.236,2.8125,0,0,0,0,0
0.237,2.5,0,0,0,0,0
0.238,2.5,0,0,0,0,0
0.239,2.5,0,0,0,0,0
0.24,2.1875,0,0,0,0,0
0.241,1.875,0,0,0,0,0
0.242,1.875,0,0,0,0,0
0.243,1.875,0,0,0,0,0
0.244,1.5625,0,0,0,0,0
0.245,1.25,0,0,0,0,0
0.246,1.25,0,0,0,0,0
0.247,1.25,0,0,0,0,0
0.248,0.9375,0,0,0,0,0
0.249,0.625,0,0,0,0,0
0.25,0.625,0,0,0,0,0
0.251,0.625,0,0,0,0,0
0.252,0.3125,0,0,0,0,0
0.253,0,0,0,0,0,0
0.254,0,0,0,0,0,0
0.255,0,0,0,0,0,0
0.256,-0.3125,0,0,0,0,0
0.257,-0.625,0,0,0,0,0
0.258,-0.3125,0,0,0,0,0
0.259,0,0,0,0,0,1
0.26,-0.3125,0,0,0,0,0
0.261,-0.625,0,0,0,0,0
0.262,-0.625,0,0,0,0,0
0.263,-0.625,0,0,0,0,0
0.264,-0.3125,0,0,0,0,0
0.265,0,0,0,0,0,0
0.266,0.3125,0,0,0,0,0
0.267,0.625,0,0,0,0,0
0.268,0.625,0,0,0,0,0
0.269,0.625,0,0,0,0,0
0.27,0.3125,0,0,0,0,0
0.271,0,0,0,0,0,0
0.272,0,0,0,0,0,0
0.273,0,0,0,0,0,0
0.274,-0.3125,0,0,0,0,0
0.275,-0.625,0,0,0,0,0
0.276,-0.625,0,0,0,0,0
0.277,-0.625,0,0,0,0,0
0.278,-0.3125,0,0,0,0,0
0.279,0,0,0,0,0,0
0.28,0.3125,0,0,0,0,0
0.281,0.625,0,0,0,0,0
0.282,0.625,0,0,0,0,0
0.283,0.625,0,0,0,0,0
0.284,0.9375,0,0,0,0,0
0.285,1.25,0,0,0,0,0
0.286,1.25,0,0,0,0,0
0.287,1.25,0,0,0,0,0
0.288,0.9375,0,0,0,0,0
0.289,0.625,0,0,0,0,0
0.29,0.3125,0,0,0,0,0
0.291,0,0,0,0,0,0
0.292,-0.3125,0,0,0,0,0
0.293,-0.625,0,0,0,0,0
0.294,-0.625,0,0,0,0,0
0.295,-0.625,0,0,0,0,0
0.296,-0.3125,0,0,0,0,0
0.297,0,0,0,0,0,0
0.298,0,0,0,0,0,0
0.299,0,0,0,0,0,0
0.3,0,0,0,0,0,0
0.301,0,0,0,0,0,0
0.302,0.3125,0,0,0,0,0
0.303,0.625,0,0,0,0,0
0.304,0.3125,0,0,0,0,0
0.305,0,0,0,0,0,0
0.306,0,0,0,0,0,0
0.307,0,0,0,0,0,0
0.308,-0.3125,0,0,0,0,0
0.309,-0.625,0,0,0,0,0
0.31,-0.3125,0,0,0,0,0
0.311,0,0,0,0,0,0
0.312,0,0,0,0,0,0
0.313,0,0,0,0,0,0
0.314,0,0,0,0,0,0
0.315,0,0,0,0,0,0
0.316,-0.3125,0,0,0,0,0
0.317,-0.625,0,0,0,0,0
0.318,-0.3125,0,0,0,0,0
0.319,0,0,0,0,0,0
0.32,0,0,0,0,0,0
0.321,0,0,0,0,0,0
0.322,0,0,0,0,0,0
0.323,0,0,0,0,0,0
0.324,0.3125,0,0,0,0,0
0.325,0.625,0,0,0,0,0
0.326,0.625,0,0,0,0,0
0.327,0.625,0,0,0,0,0
0.328,0.625,0,0,0,0,0
0.329,0.625,0,0,0,0,0
0.33,0.625,0,0,0,0,0
0.331,0.625,0,0,0,0,0
0.332,0.625,0,0,0,0,0
0.333,0.625,0,0,0,0,0
0.334,0.3125,0,0,0,0,0
0.335,0,0,0,0,0,0
0.336,0,0,0,0,0,0
0.337,0,0,0,0,0,0
0.338,0.3125,0,0,0,0,0
0.339,0.625,0,0,0,0,0
0.34,0.625,0,0,0,0,0
0.341,0.625,0,0,0,0,0
0.342,0.625,0,0,0,0,0
0.343,0.625,0,0,0,0,0
0.344,0.625,0,0,0,0,0
0.345,0.625,0,0,0,0,0
0.346,0.625,0,0,0,0,0
0.347,0.625,0,0,0,0,0
0.348,0.625,0,0,0,0,0
0.349,0.625,0,0,0,0,0
0.35,0.625,0,0,0,0,0
0.351,0.625,0,0,0,0,0
0.352,0.625,0,0,0,0,0
0.353,0.625,0,0,0,0,0
0.354,0.3125,0,0,0,0,0
0.355,0,0,0,0,0,0
0.356,0,0,0,0,0,0
0.357,0,0,0,0,0,0
0.358,-0.3125,0,0,0,0,0
0.359,-0.625,0,0,0,0,0
0.36,-0.3125,0,0,0,0,0
0.361,0,0,0,0,0,0
0.362,0,0,0,0,0,0
0.363,0,0,0,0,0,0
0.364,0,0,0,0,0,0
0.365,0,0,0,0,0,0
0.366,0.3125,0,0,0,0,0
0.367,0.625,0,0,0,0,0
0.368,0.625,0,0,0,0,0
0.369,0.625,0,0,0,0,0
0.37,0.625,0,0,0,0,0
0.371,0.625,0,0,0,0,0
0.372,0.625,0,0,0,0,0
0.373,0.625,0,0,0,0,0
0.374,0.625,0,0,0,0,0
0.375,0.625,0,0,0,0,0
0.376,0,0,0,0,0,0
0.377,-0.625,0,0,0,0,0
0.378,-0.625,0,0,0,0,0
0.379,-0.625,0,0,0,0,0
0.38,-0.625,0,0,0,0,0
0.381,-0.625,0,0,0,0,0
0.382,-0.625,0,0,0,0,0
0.383,-0.625,0,0,0,0,0
0.384,-0.625,0,0,0,0,0
0.385,-0.625,0,0,0,0,0
0.386,-0.625,0,0,0,0,0
0.387,-0.625,0,0,0,0,0
0.388,-0.9375,0,0,0,0,0
0.389,-1.25,0,0,0,0,0
0.39,-1.25,0,0,0,0,0
0.391,-1.25,0,0,0,0,0
0.392,-0.9375,0,0,0,0,0
0.393,-0.625,0,0,0,0,0
0.394,-0.3125,0,0,0,0,0
0.395,0,0,0,0,0,0
0.396,-0.3125,0,0,0,0,0
0.397,-0.625,0,0,0,0,0
0.398,-0.625,0,0,0,0,0
0.399,-0.625,0,0,0,0,0
0.4,-0.9375,0,0,0,0,0
0.401,-1.25,0,0,0,0,0
0.402,-1.25,0,0,0,0,0
0.403,-1.875,0,0,0,0,0
0.404,-1.5625,0,0,0,0,0
0.405,-1.25,0,0,0,0,0
0.406,-0.3125,0,0,0,0,0
0.407,-0.625,0,0,0,0,0
0.408,-0.9375,0,0,0,0,0
0.409,-1.25,0,0,0,0,0
0.41,-1.25,0,0,0,0,0
0.411,-1.25,0,0,0,0,0
0.412,-1.25,0,0,0,0,0
0.413,-1.25,0,0,0,0,0
0.414,-0.625,0,0,0,0,0
0.415,-0.625,0,0,0,0,0
0.416,-0.3125,0,0,0,0,0
0.417,0,0,0,0,0,0
0.418,-0.625,0,0,0,0,0
0.419,-0.625,0,0,0,0,0
0.42,-0.625,0,0,0,0,0
0.421,-1.25,0,0,0,0,0
0.422,-1.25,0,0,0,0,0
0.423,-1.875,0,0,0,0,0
0.424,-1.25,0,0,0,0,0
0.425,-1.875,0,0,0,0,0
0.426,-2.1875,0,0,0,0,0
0.427,-2.5,0,0,0,0,0
0.428,-2.5,0,0,0,0,0
0.429,-2.5,0,0,0,0,0
0.43,-2.5,0,0,0,0,0
0.431,-2.5,0,0,0,0,0
0.432,-2.1875,0,0,0,0,0
0.433,-1.875,0,0,0,0,0
0.434,-1.5625,0,0,0,0,0
0.435,-1.875,0,0,0,0,0
0.436,-2.5,0,0,0,0,0
0.437,-2.5,0,0,0,0,0
0.438,-2.5,0,0,0,0,0
0.439,-1.875,0,0,0,0,0
0.44,-1.25,0,0,0,0,0
0.441,-0.625,0,0,0,0,0
0.442,-1.25,0,0,0,0,0
0.443,-0.625,0,0,0,0,0
0.444,-1.25,0,0,0,0,0
0.445,-1.25,0,0,0,0,0
0.446,-1.25,0,0,0,0,0
0.447,-0.625,0,0,0,0,0
0.448,-0.3125,0,0,0,0,0
0.449,0,0,0,0,0,0
0.45,-0.625,0,0,0,0,0
0.451,-0.625,0,0,0,0,0
0.452,-0.9375,0,0,0,0,0
0.453,-1.25,0,0,0,0,0
0.454,-0.625,0,0,0,0,0
0.455,-0.625,0,0,0,0,0
0.456,-0.9375,0,0,0,0,0
0.457,-1.25,0,0,0,0,0
0.458,-1.25,0,0,0,0,0
0.459,-1.875,0,0,0,0,0
0.46,-1.5625,0,0,0,0,0
0.461,-1.25,0,0,0,0,0
0.462,-1.875,0,0,0,0,0
0.463,-1.25,0,0,0,0,0
0.464,-1.875,0,0,0,0,0
0.465,-1.25,0,0,0,0,0
0.466,-1.25,0,0,0,0,0
0.467,-1.25,0,0,0,0,0
0.468,-2.1875,0,0,0,0,0
0.469,-1.875,0,0,0,0,0
0.47,-2.1875,0,0,0,0,0
0.471,-2.5,0,0,0,0,0
0.472,-2.5,0,0,0,0,0
0.473,-2.5,0,0,0,0,0
0.474,-2.5,0,0,0,0,0
0.475,-2.5,0,0,0,0,0
0.476,-2.8125,0,0,0,0,0
0.477,-3.125,0,0,0,0,0
0.478,-2.5,0,0,0,0,0
0.479,-3.125,0,0,0,0,0
0.48,-3.125,0,0,0,0,0
0.481,-3.125,0,0,0,0,0
0.482,-3.125,0,0,0,0,0
0.483,-3.125,0,0,0,0,0
0.484,-3.125,0,0,0,0,0
0.485,-3.125,0,0,0,0,0
0.486,-2.8125,0,0,0,0,0
0.487,-2.5,0,0,0,0,0
0.488,-2.5,0,0,0,0,0
0.489,-2.5,0,0,0,0,0
0.49,-3.125,0,0,0,0,0
0.491,-2.5,0,0,0,0,0
0.492,-2.1875,0,0,0,0,0
0.493,-1.875,0,0,0,0,0
0.494,-1.875,0,0,0,0,0
0.495,-1.875,0,0,0,0,0
0.496,-2.8125,0,0,0,0,0
0.497,-3.125,0,0,0,0,0
0.498,-2.8125,0,0,0,0,0
0.499,-2.5,0,0,0,0,0
0.5,-2.1875,0,0,0,0,0
0.501,-1.875,0,0,0,0,0
0.502,-1.5625,0,0,0,0,0
0.503,-1.25,0,0,0,0,0
0.504,-2.1875,0,0,0,0,0
0.505,-2.5,0,0,0,0,0
0.506,-2.1875,0,0,0,0,0
0.507,-1.875,0,0,0,0,0
0.508,-1.875,0,0,0,0,0
0.509,-2.5,0,0,0,0,0
0.51,-2.8125,0,0,0,0,0
0.511,-3.125,0,0,0,0,0
0.512,-3.125,0,0,0,0,0
0.513,-3.125,0,0,0,0,0
0.514,-3.125,0,0,0,0,0
0.515,-3.125,0,0,0,0,0
0.516,-3.125,0,0,0,0,0
0.517,-3.125,0,0,0,0,0
0.518,-2.8125,0,0,0,0,0
0.519,-3.125,0,0,0,0,0
0.52,-2.8125,0,0,0,0,0
0.521,-3.125,0,0,0,0,0
0.522,-3.75,0,0,0,0,0
0.523,-3.75,0,0,0,0,0
0.524,-3.4375,0,0,0,0,0
0.525,-3.125,0,0,0,0,0
0.526,-3.125,0,0,0,0,0
0.527,-3.75,0,0,0,0,0
0.528,-3.75,0,0,0,0,0
0.529,-3.75,0,0,0,0,0
0.53,-3.125,0,0,0,0,0
0.531,-3.75,0,0,0,0,0
0.532,-3.75,0,0,0,0,0
0.533,-3.75,0,0,0,0,0
0.534,-3.125,0,0,0,0,0
0.535,-3.75,0,0,0,0,0
0.536,-3.75,0,0,0,0,0
0.537,-3.125,0,0,0,0,0
0.538,-3.125,0,0,0,0,0
0.539,-3.125,0,0,0,0,0
0.54,-3.125,0,0,0,0,0
0.541,-3.125,0,0,0,0,0
0.542,-3.4375,0,0,0,0,0
0.543,-3.75,0,0,0,0,0
0.544,-3.4375,0,0,0,0,0
0.545,-3.125,0,0,0,0,0
0.546,-2.5,0,0,0,0,0
0.547,-3.125,0,0,0,0,0
0.548,-2.5,0,0,0,0,0
0.549,-1.875,0,0,0,0,0
0.55,-3.125,0,0,0,0,0
0.551,-3.75,0,0,0,0,0
0.552,-3.75,0,0,0,0,0
0.553,-3.125,0,0,0,0,0
0.554,-3.4375,0,0,0,0,0
0.555,-3.125,0,0,0,0,0
0.556,-3.4375,0,0,0,0,0
0.557,-3.75,0,0,0,0,0
0.558,-3.4375,0,0,0,0,0
0.559,-3.125,0,0,0,0,0
0.56,-3.4375,0,0,0,0,0
0.561,-3.125,0,0,0,0,0
0.562,-4.0625,0,0,0,0,0
0.563,-4.375,0,0,0,0,0
0.564,-4.0625,0,0,0,0,0
0.565,-4.375,0,0,0,0,0
0.566,-3.75,0,0,0,0,0
0.567,-3.75,0,0,0,0,0
0.568,-3.4375,0,0,0,0,0
0.569,-3.125,0,0,0,0,0
0.57,-4.0625,0,0,0,0,0
0.571,-4.375,0,0,0,0,0
0.572,-3.4375,0,0,0,0,0
0.573,-3.125,0,0,0,0,0
0.574,-3.125,0,0,0,0,0
0.575,-3.125,0,0,0,0,0
0.576,-3.4375,0,0,0,0,0
0.577,-3.75,0,0,0,0,0
0.578,-3.4375,0,0,0,0,0
0.579,-3.75,0,0,0,0,0
0.58,-3.4375,0,0,0,0,0
0.581,-3.125,0,0,0,0,0
0.582,-4.0625,0,0,0,0,0
0.583,-4.375,0,0,0,0,0
0.584,-4.375,0,0,0,0,0
0.585,-4.375,0,0,0,0,0
0.586,-3.75,0,0,0,0,0
0.587,-4.375,0,0,0,0,0
0.588,-4.375,0,0,0,0,0
0.589,-4.375,0,0,0,0,0
0.59,-3.75,0,0,0,0,0
0.591,-4.375,0,0,0,0,0
0.592,-4.0625,0,0,0,0,0
0.593,-4.375,0,0,0,0,0
0.594,-4.0625,0,0,0,0,0
0.595,-4.375,0,0,0,0,0
0.596,-4.375,0,0,0,0,0
0.597,-4.375,0,0,0,0,0
0.598,-4.0625,0,0,0,0,0
0.599,-3.75,0,0,0,0,0
0.6,-3.75,0,0,0,0,0
0.601,-3.75,0,0,0,0,0
0.602,-4.375,0,0,0,0,0
0.603,-5,0,0,0,0,0
0.604,-3.75,0,0,0,0,0
0.605,-3.125,0,0,0,0,0
0.606,-3.125,0,0,0,0,0
0.607,-3.125,0,0,0,0,0
0.608,-2.8125,0,0,0,0,0
0.609,-2.5,0,0,0,0,0
0.61,-2.8125,0,0,0,0,0
0.611,-3.125,0,0,0,0,0
0.612,-2.8125,0,0,0,0,0
0.613,-2.5,0,0,0,0,0
0.614,-2.5,0,0,0,0,0
0.615,-3.125,0,0,0,0,0
0.616,-3.4375,0,0,0,0,0
0.617,-4.375,0,0,0,0,0
0.618,-4.375,0,0,0,0,0
0.619,-4.375,0,0,0,0,0
0.62,-4.0625,0,0,0,0,0
0.621,-4.375,0,0,0,0,0
0.622,-4.375,0,0,0,0,0
0.623,-4.375,0,0,0,0,0
0.624,-4.375,0,0,0,0,0
0.625,-4.375,0,0,0,0,0
0.626,-4.375,0,0,0,0,0
0.627,-4.375,0,0,0,0,0
0.628,-4.375,0,0,0,0,0
0.629,-4.375,0,0,0,0,0
0.63,-4.375,0,0,0,0,0
0.631,-3.75,0,0,0,0,0
0.632,-4.6875,0,0,0,0,0
0.633,-4.375,0,0,0,0,0
0.634,-4.375,0,0,0,0,0
0.635,-4.375,0,0,0,0,0
0.636,-4.375,0,0,0,0,0
0.637,-4.375,0,0,0,0,0
0.638,-4.0625,0,0,0,0,0
0.639,-3.75,0,0,0,0,0
0.64,-3.75,0,0,0,0,0
0.641,-3.75,0,0,0,0,0
0.642,-3.75,0,0,0,0,0
0.643,-3.75,0,0,0,0,0
0.644,-4.0625,0,0,0,0,0
0.645,-4.375,0,0,0,0,0
0.646,-4.0625,0,0,0,0,0
0.647,-3.75,0,0,0,0,0
0.648,-3.75,0,0,0,0,0
0.649,-4.375,0,0,0,0,0
0.65,-4.6875,0,0,0,0,0
0.651,-4.375,0,0,0,0,0
0.652,-4.375,0,0,0,0,0
0.653,-4.375,0,0,0,0,0
0.654,-3.4375,0,0,0,0,0
0.655,-3.75,0,0,0,0,0
0.656,-3.75,0,0,0,0,0
0.657,-3.75,0,0,0,0,0
0.658,-3.125,0,0,0,0,0
0.659,-3.125,0,0,0,0,0
0.66,-2.8125,0,0,0,0,0
0.661,-2.5,0,0,0,0,0
0.662,-3.125,0,0,0,0,0
0.663,-3.125,0,0,0,0,0
0.664,-3.4375,0,0,0,0,0
0.665,-3.125,0,0,0,0,0
0.666,-3.125,0,0,0,0,0
0.667,-3.125,0,0,0,0,0
0.668,-2.5,0,0,0,0,0
0.669,-2.5,0,0,0,0,0
0.67,-2.5,0,0,0,0,0
0.671,-2.5,0,0,0,0,0
0.672,-2.5,0,0,0,0,0
0.673,-2.5,0,0,0,0,0
0.674,-2.5,0,0,0,0,0
0.675,-2.5,0,0,0,0,0
0.676,-3.4375,0,0,0,0,0
0.677,-3.75,0,0,0,0,0
0.678,-3.125,0,0,0,0,0
0.679,-3.125,0,0,0,0,0
0.68,-3.125,0,0,0,0,0
0.681,-3.75,0,0,0,0,0
0.682,-4.0625,0,0,0,0,0
0.683,-3.75,0,0,0,0,0
0.684,-3.75,0,0,0,0,0
0.685,-3.75,0,0,0,0,0
0.686,-3.75,0,0,0,0,0
0.687,-3.75,0,0,0,0,0
0.688,-3.75,0,0,0,0,0
0.689,-3.75,0,0,0,0,0
0.69,-3.75,0,0,0,0,0
0.691,-3.75,0,0,0,0,0
0.692,-3.4375,0,0,0,0,0
0.693,-2.5,0,0,0,0,0
0.694,-2.8125,0,0,0,0,0
0.695,-2.5,0,0,0,0,0
0.696,-2.5,0,0,0,0,0
0.697,-3.125,0,0,0,0,0
0.698,-3.125,0,0,0,0,0
0.699,-3.125,0,0,0,0,0
0.7,-3.125,0,0,0,0,0
0.701,-3.125,0,0,0,0,0
0.702,-3.75,0,0,0,0,0
0.703,-3.75,0,0,0,0,0
0.704,-3.75,0,0,0,0,0
0.705,-3.75,0,0,0,0,0
0.706,-4.375,0,0,0,0,0
0.707,-4.375,0,0,0,0,0
0.708,-4.6875,0,0,0,0,0
0.709,-5,0,0,0,0,0
0.71,-4.6875,0,0,0,0,0
0.711,-4.375,0,0,0,0,0
0.712,-4.375,0,0,0,0,0
0.713,-4.375,0,0,0,0,0
0.714,-4.0625,0,0,0,0,0
0.715,-3.75,0,0,0,0,0
0.716,-3.75,0,0,0,0,0
0.717,-3.75,0,0,0,0,0
0.718,-3.75,0,0,0,0,0
0.719,-3.75,0,0,0,0,0
0.72,-4.0625,0,0,0,0,0
0.721,-4.375,0,0,0,0,0
0.722,-4.375,0,0,0,0,0
0.723,-4.375,0,0,0,0,0
0.724,-4.375,0,0,0,0,0
0.725,-4.375,0,0,0,0,0
0.726,-4.375,0,0,0,0,0
0.727,-4.375,0,0,0,0,0
0.728,-4.375,0,0,0,0,0
0.729,-4.375,0,0,0,0,0
0.73,-5.3125,0,0,0,0,0
0.731,-5.625,0,0,0,0,0
0.732,-5.9375,0,0,0,0,0
0.733,-6.25,0,0,0,0,0
0.734,-5.625,0,0,0,0,0
0.735,-5.625,0,0,0,0,0
0.736,-6.25,0,0,0,0,0
0.737,-5.625,0,0,0,0,0
0.738,-5.9375,0,0,0,0,0
0.739,-5.625,0,0,0,0,0
0.74,-5.9375,0,0,0,0,0
0.741,-5.625,0,0,0,0,0
0.742,-6.5625,0,0,0,0,0
0.743,-6.25,0,0,0,0,0
0.744,-5.9375,0,0,0,0,0
0.745,-5.625,0,0,0,0,0
0.746,-5,0,0,0,0,0
0.747,-4.375,0,0,0,0,0
0.748,-4.375,0,0,0,0,0
0.749,-4.375,0,0,0,0,0
0.75,-4.0625,0,0,0,0,0
0.751,-4.375,0,0,0,0,0
0.752,-4.0625,0,0,0,0,0
0.753,-3.75,0,0,0,0,0
0.754,-4.0625,0,0,0,0,0
0.755,-4.375,0,0,0,0,0
0.756,-4.0625,0,0,0,0,0
0.757,-4.375,0,0,0,0,0
0.758,-3.75,0,0,0,0,0
0.759,-3.75,0,0,0,0,0
0.76,-3.75,0,0,0,0,0
0.761,-3.75,0,0,0,0,0
0.762,-3.75,0,0,0,0,0
0.763,-3.75,0,0,0,0,0
0.764,-4.0625,0,0,0,0,0
0.765,-4.375,0,0,0,0,0
0.766,-3.4375,0,0,0,0,0
0.767,-3.75,0,0,0,0,0
0.768,-4.0625,0,0,0,0,0
0.769,-4.375,0,0,0,0,0
0.77,-4.0625,0,0,0,0,0
0.771,-4.375,0,0,0,0,0
0.772,-4.375,0,0,0,0,0
0.773,-4.375,0,0,0,0,0
0.774,-4.375,0,0,0,0,0
0.775,-4.375,0,0,0,0,0
0.776,-4.375,0,0,0,0,0
0.777,-4.375,0,0,0,0,0
0.778,-4.0625,0,0,0,0,0
0.779,-4.375,0,0,0,0,0
0.78,-3.4375,0,0,0,0,0
0.781,-3.125,0,0,0,0,0
0.782,-3.4375,0,0,0,0,0
0.783,-3.75,0,0,0,0,0
0.784,-4.0625,0,0,0,0,0
0.785,-4.375,0,0,0,0,0
0.786,-3.4375,0,0,0,0,0
0.787,-3.125,0,0,0,0,0
0.788,-3.75,0,0,0,0,0
0.789,-3.75,0,0,0,0,0
0.79,-4.0625,0,0,0,0,0
0.791,-3.75,0,0,0,0,0
0.792,-4.0625,0,0,0,0,0
0.793,-3.75,0,0,0,0,0
0.794,-3.75,0,0,0,0,0
0.795,-3.75,0,0,0,0,0
0.796,-3.4375,0,0,0,0,0
0.797,-3.125,0,0,0,0,0
0.798,-3.125,0,0,0,0,0
0.799,-3.125,0,0,0,0,0
0.8,-3.4375,0,0,0,0,0
0.801,-2.5,0,0,0,0,0
0.802,-2.5,0,0,0,0,0
0.803,-2.5,0,0,0,0,0
0.804,-2.5,0,0,0,0,0
0.805,-2.5,0,0,0,0,0
0.806,-2.5,0,0,0,0,0
0.807,-2.5,0,0,0,0,0
0.808,-2.5,0,0,0,0,0
0.809,-2.5,0,0,0,0,0
0.81,-2.1875,0,0,0,0,0
0.811,-1.875,0,0,0,0,0
0.812,-2.1875,0,0,0,0,0
0.813,-2.5,0,0,0,0,0
0.814,-2.1875,0,0,0,0,0
0.815,-2.5,0,0,0,0,0
0.816,-1.875,0,0,0,0,0
0.817,-1.875,0,0,0,0,0
0.818,-2.1875,0,0,0,0,0
0.819,-2.5,0,0,0,0,0
0.82,-2.1875,0,0,0,0,0
0.821,-1.875,0,0,0,0,0
0.822,-2.8125,0,0,0,0,0
0.823,-3.125,0,0,0,0,0
0.824,-3.125,0,0,0,0,0
0.825,-3.75,0,0,0,0,0
0.826,-3.4375,0,0,0,0,0
0.827,-3.125,0,0,0,0,0
0.828,-3.4375,0,0,0,0,0
0.829,-3.75,0,0,0,0,0
0.83,-3.4375,0,0,0,0,0
0.831,-3.125,0,0,0,0,0
0.832,-3.75,0,0,0,0,0
0.833,-3.125,0,0,0,0,0
0.834,-3.4375,0,0,0,0,0
0.835,-3.125,0,0,0,0,0
0.836,-3.125,0,0,0,0,0
0.837,-3.125,0,0,0,0,0
0.838,-3.75,0,0,0,0,0
0.839,-3.125,0,0,0,0,0
0.84,-2.8125,1,0,0,0,0
0.841,-1.875,0,0,0,0,0
0.842,-2.8125,0,0,0,0,0
0.843,-2.5,0,0,0,0,0
0.844,-3.125,0,0,0,0,0
0.845,-3.125,0,0,0,0,0
0.846,-2.8125,0,0,0,0,0
0.847,-3.125,0,0,0,0,0
0.848,-3.125,0,0,0,0,0
0.849,-3.75,0,0,0,0,0
0.85,-3.75,0,0,0,0,0
0.851,-4.375,0,0,0,0,0
0.852,-4.375,0,0,0,0,0
0.853,-4.375,0,0,0,0,0
0.854,-4.375,0,0,0,0,0
0.855,-3.75,0,0,0,0,0
0.856,-5.625,0,0,0,0,0
0.857,-6.25,0,0,0,0,0
0.858,-6.5625,0,0,0,0,0
0.859,-6.875,0,0,0,0,0
0.86,-7.1875,0,0,0,0,0
0.861,-8.125,0,0,0,0,0
0.862,-8.75,0,0,0,0,0
0.863,-10.625,0,0,0,0,0
0.864,-11.875,0,0,0,0,0
0.865,-13.125,0,0,0,0,0
0.866,-15,0,0,0,0,0
0.867,-16.875,0,0,0,0,0
0.868,-18.125,0,0,0,0,0
0.869,-20,0,0,0,0,0
0.87,-21.875,0,0,0,0,0
0.871,-23.125,0,0,0,0,0
0.872,-25,0,0,0,0,0
0.873,-25.625,0,0,0,0,0
0.874,-26.563,0,0,0,0,0
0.875,-28.125,0,0,0,0,0
0.876,-30,0,0,0,0,0
0.877,-31.25,0,0,0,0,0
0.878,-32.188,0,0,0,0,0
0.879,-32.5,0,0,0,0,0
0.88,-32.813,0,0,0,0,0
0.881,-33.125,0,0,0,0,0
0.882,-34.063,0,0,0,0,0
0.883,-34.375,0,1,0,0,0
0.884,-35.938,0,0,0,0,0
0.885,-37.5,0,0,0,0,0
0.886,-37.813,0,0,0,0,0
0.887,-38.75,0,0,0,0,0
0.888,-39.688,0,0,0,0,0
0.889,-40.625,0,0,0,0,0
0.89,-41.875,0,0,0,0,0
0.891,-42.5,0,0,0,0,0
0.892,-43.125,0,0,0,0,0
0.893,-43.125,0,0,0,0,0
0.894,-42.813,0,0,0,0,0
0.895,-42.5,0,0,0,0,0
0.896,-41.25,0,0,0,0,0
0.897,-40,0,0,0,0,0
0.898,-38.438,0,0,0,0,0
0.899,-37.5,0,0,0,0,0
0.9,-36.563,0,0,0,0,0
0.901,-35.625,0,0,0,0,0
0.902,-36.25,0,0,0,0,0
0.903,-35.625,0,0,0,0,0
0.904,-35.313,0,0,0,0,0
0.905,-34.375,0,0,0,0,0
0.906,-33.438,0,0,0,0,0
0.907,-31.875,0,0,0,0,0
0.908,-31.563,0,0,0,0,0
0.909,-31.25,0,0,0,0,0
0.91,-30,0,0,0,0,0
0.911,-28.75,0,0,0,0,0
0.912,-27.188,0,0,0,0,0
0.913,-25.625,0,0,0,0,0
0.914,-25.625,0,0,0,0,0
0.915,-25.625,0,0,0,0,0
0.916,-25,0,0,0,0,0
0.917,-23.75,0,0,0,0,0
0.918,-22.5,0,0,0,0,0
0.919,-21.25,0,0,0,0,0
0.92,-19.688,0,0,0,0,0
0.921,-17.5,0,0,0,0,0
0.922,-15.313,0,0,0,0,0
0.923,-13.125,0,0,0,0,0
0.924,-11.875,0,0,0,0,0
0.925,-10.625,0,0,0,0,0
0.926,-8.125,0,0,0,0,0
0.927,-7.5,0,0,0,0,0
0.928,-6.25,0,0,0,0,0
0.929,-5.625,0,0,0,0,0
0.93,-4.375,0,0,0,0,0
0.931,-3.125,0,0,0,0,0
0.932,-2.1875,0,0,0,0,0
0.933,-1.25,0,0,0,0,0
0.934,-0.625,0,0,0,0,0
0.935,0.625,0,0,0,0,0
0.936,0,0,0,0,0,0
0.937,0,0,0,0,0,0
0.938,1.25,0,0,0,0,0
0.939,1.875,0,0,0,0,0
0.94,2.1875,0,0,0,0,0
0.941,3.125,0,0,0,0,0
0.942,3.125,0,0,0,0,0
0.943,3.125,0,0,0,0,0
0.944,3.125,0,0,0,0,0
0.945,3.125,0,0,0,0,0
0.946,4.375,0,0,0,0,0
0.947,5,0,0,0,0,0
0.948,5.625,0,0,0,0,0
0.949,5,0,0,0,0,0
0.95,5.625,0,0,0,0,0
0.951,5.625,0,0,1,0,0
0.952,4.6875,0,0,0,0,0
0.953,5,0,0,0,0,0
0.954,5,0,0,0,0,0
0.955,5,0,0,0,0,0
0.956,4.6875,0,0,0,0,0
0.957,4.375,0,0,0,0,0
0.958,4.6875,0,0,0,0,0
0.959,4.375,0,0,0,0,0
0.96,4.6875,0,0,0,0,0
0.961,5,0,0,0,0,0
0.962,4.375,0,0,0,0,0
0.963,5,0,0,0,0,0
0.964,5.3125,0,0,0,0,0
0.965,5.625,0,0,0,0,0
0.966,5.9375,0,0,0,0,0
0.967,6.25,0,0,0,0,0
0.968,6.5625,0,0,0,0,0
0.969,6.25,0,0,0,0,0
0.97,6.25,0,0,0,0,0
0.971,6.25,0,0,0,0,0
0.972,6.875,0,0,0,0,0
0.973,6.875,0,0,0,0,0
0.974,6.5625,0,0,0,0,0
0.975,6.875,0,0,0,0,0
0.976,6.875,0,0,0,0,0
0.977,7.5,0,0,0,0,0
0.978,6.875,0,0,0,0,0
0.979,6.875,0,0,0,0,0
0.98,7.1875,0,0,0,0,0
0.981,6.875,0,0,0,0,0
0.982,6.25,0,0,0,0,0
0.983,6.25,0,0,0,0,0
0.984,5.9375,0,0,0,0,0
0.985,5.625,0,0,0,0,0
0.986,6.25,0,0,0,0,0
0.987,6.25,0,0,0,0,0
0.988,5.9375,0,0,0,0,0
0.989,5.625,0,0,0,0,0
0.99,5.625,0,0,0,0,0
0.991,5.625,0,0,0,0,0
0.992,6.5625,0,0,0,0,0
0.993,6.875,0,0,0,0,0
0.994,6.5625,0,0,0,0,0
0.995,6.875,0,0,0,0,0
0.996,6.5625,0,0,0,0,0
0.997,6.875,0,0,0,0,0
0.998,6.875,0,0,0,0,0
0.999,6.875,0,0,0,0,0
1,6.875,0,0,0,0,0
1.001,6.875,0,0,0,0,0
1.002,6.5625,0,0,0,0,0
1.003,6.875,0,0,0,0,0
1.004,7.5,0,0,0,0,0
1.005,7.5,0,0,0,0,0
1.006,7.5,0,0,0,0,0
1.007,7.5,0,0,0,0,0
1.008,7.5,0,0,0,0,0
1.009,7.5,0,0,0,0,0
1.01,7.5,0,0,0,0,0
1.011,7.5,0,0,0,0,0
1.012,7.8125,0,0,0,0,0
1.013,8.75,0,0,0,0,0
1.014,7.5,0,0,0,0,0
1.015,7.5,0,0,0,0,0
1.016,7.5,0,0,0,0,0
1.017,6.875,0,0,0,0,0
1.018,6.875,0,0,0,0,0
1.019,6.875,0,0,0,0,0
1.02,7.1875,0,0,0,0,0
1.021,8.125,0,0,0,0,0
1.022,7.1875,0,0,0,0,0
1.023,7.5,0,0,0,0,0
1.024,7.8125,0,0,0,0,0
1.025,8.75,0,0,0,0,0
1.026,8.125,0,0,0,0,0
1.027,8.75,0,0,0,0,0
1.028,8.125,0,0,0,0,0
1.029,8.125,0,0,0,0,0
1.03,8.125,0,0,0,0,0
1.031,8.125,0,0,0,0,0
1.032,8.75,0,0,0,0,0
1.033,8.75,0,0,0,0,0
1.034,9.0625,0,0,0,0,0
1.035,8.75,0,0,0,0,0
1.036,8.125,0,0,0,0,0
1.037,8.125,0,0,0,0,0
1.038,8.75,0,0,0,0,0
1.039,9.375,0,0,0,0,0
1.04,8.75,0,0,0,0,0
1.041,9.375,0,0,0,0,0
1.042,10,0,0,0,0,0
1.043,10,0,0,0,0,0
1.044,10,0,0,0,0,0
1.045,9.375,0,0,0,0,0
1.046,10.313,0,0,0,0,0
1.047,10.625,0,0,0,0,0
1.048,10.313,0,0,0,0,0
1.049,10,0,0,0,0,0
1.05,10.313,0,0,0,0,0
1.051,10.625,0,0,0,0,0
1.052,10.313,0,0,0,0,0
1.053,10,0,0,0,0,0
1.054,10,0,0,0,0,0
1.055,10.625,0,0,0,0,0
1.056,10.313,0,0,0,0,0
1.057,10.625,0,0,0,0,0
1.058,10.625,0,0,0,0,0
1.059,11.25,0,0,0,0,0
1.06,11.25,0,0,0,0,0
1.061,11.25,0,0,0,0,0
1.062,11.25,0,0,0,0,0
1.063,11.25,0,0,0,0,0
1.064,10.938,0,0,0,0,0
1.065,11.25,0,0,0,0,0
1.066,10.313,0,0,0,0,0
1.067,10,0,0,0,0,0
1.068,10.938,0,0,0,0,0
1.069,11.25,0,0,0,0,0
1.07,10.938,0,0,0,0,0
1.071,11.25,0,0,0,0,0
1.072,11.563,0,0,0,0,0
1.073,11.875,0,0,0,0,0
1.074,11.875,0,0,0,0,0
1.075,11.875,0,0,0,0,0
1.076,11.875,0,0,0,0,0
1.077,11.875,0,0,0,0,0
1.078,11.563,0,0,0,0,0
1.079,11.25,0,0,0,0,0
1.08,11.563,0,0,0,0,0
1.081,12.5,0,0,0,0,0
1.082,12.5,0,0,0,0,0
1.083,12.5,0,0,0,0,0
1.084,12.188,0,0,0,0,0
1.085,11.875,0,0,0,0,0
1.086,12.5,0,0,0,0,0
1.087,12.5,0,0,0,0,0
1.088,12.5,0,0,0,0,0
1.089,12.5,0,0,0,0,0
1.09,12.813,0,0,0,0,0
1.091,13.125,0,0,0,0,0
1.092,13.125,0,0,0,0,0
1.093,13.75,0,0,0,0,0
1.094,13.75,0,0,0,0,0
1.095,13.75,0,0,0,0,0
1.096,13.75,0,0,0,0,0
1.097,13.75,0,0,0,0,0
1.098,13.75,0,0,0,0,0
1.099,13.75,0,0,0,0,0
1.1,14.375,0,0,0,0,0
1.101,14.375,0,0,0,0,0
1.102,14.688,0,0,0,0,0
1.103,15,0,0,0,0,0
1.104,14.688,0,0,0,0,0
1.105,15,0,0,0,0,0
1.106,15,0,0,0,0,0
1.107,15,0,0,0,0,0
1.108,15,0,0,0,0,0
1.109,15,0,0,0,0,0
1.11,15.625,0,0,0,0,0
1.111,15.625,0,0,0,0,0
1.112,15.625,0,0,0,0,0
1.113,15.625,0,0,0,0,0
1.114,15.625,0,0,0,0,0
1.115,15.625,0,0,0,0,0
1.116,16.25,0,0,0,0,0
1.117,16.875,0,0,0,0,0
1.118,16.25,0,0,0,0,0
1.119,16.875,0,0,0,0,0
1.12,16.563,0,0,0,0,0
1.121,16.25,0,0,0,0,0
1.122,16.875,0,0,0,0,0
1.123,17.5,0,0,0,0,0
1.124,17.5,0,0,0,0,0
1.125,17.5,0,0,0,0,0
1.126,17.813,0,0,0,0,0
1.127,18.125,0,0,0,0,0
1.128,18.125,0,0,0,0,0
1.129,17.5,0,0,0,0,0
1.13,17.813,0,0,0,0,0
1.131,17.5,0,0,0,0,0
1.132,17.813,0,0,0,0,0
1.133,18.125,0,0,0,0,0
1.134,17.813,0,0,0,0,0
1.135,18.125,0,0,0,0,0
1.136,18.438,0,0,0,0,0
1.137,18.75,0,0,0,0,0
1.138,18.438,0,0,0,0,0
1.139,18.75,0,0,0,0,0
1.14,19.063,0,0,0,0,0
1.141,20,0,0,0,0,0
1.142,19.063,0,0,0,0,0
1.143,19.375,0,0,0,0,0
1.144,18.75,0,0,0,0,0
1.145,18.75,0,0,0,0,0
1.146,19.375,0,0,0,0,0
1.147,20,0,0,0,0,0
1.148,20.625,0,0,0,0,0
1.149,20.625,0,0,0,0,0
1.15,20.938,0,0,0,0,0
1.151,20.625,0,0,0,0,0
1.152,20.625,0,0,0,0,0
1.153,20.625,0,0,0,0,0
1.154,21.25,0,0,0,0,0
1.155,21.25,0,0,0,0,0
1.156,21.25,0,0,0,0,0
1.157,21.875,0,0,0,0,0
1.158,21.875,0,0,0,0,0
1.159,21.875,0,0,0,0,0
1.16,22.188,0,0,0,0,0
1.161,23.125,0,0,0,0,0
1.162,22.813,0,0,0,0,0
1.163,22.5,0,0,0,0,0
1.164,22.5,0,0,0,0,0
1.165,22.5,0,0,0,0,0
1.166,22.5,0,0,0,0,0
1.167,23.125,0,0,0,0,0
1.168,23.125,0,0,0,0,0
1.169,23.125,0,0,0,0,0
1.17,23.125,0,0,0,0,0
1.171,23.75,0,0,0,0,0
1.172,23.75,0,0,0,0,0
1.173,23.75,0,0,0,0,0
1.174,24.375,0,0,0,0,0
1.175,23.75,0,0,0,0,0
1.176,23.438,0,0,0,0,0
1.177,23.125,0,0,0,0,0
1.178,23.125,0,0,0,0,0
1.179,23.75,0,0,0,0,0
1.18,24.063,0,0,0,0,0
1.181,24.375,0,0,0,0,0
1.182,24.375,0,0,0,0,0
1.183,24.375,0,0,0,0,0
1.184,23.75,0,0,0,0,0
1.185,24.375,0,0,0,0,0
1.186,24.375,0,0,0,0,0
1.187,24.375,0,0,0,0,0
1.188,24.375,0,0,0,0,0
1.189,24.375,0,0,0,1,0
1.19,24.375,0,0,0,0,0
1.191,24.375,0,0,0,0,0
1.192,24.375,0,0,0,0,0
1.193,24.375,0,0,0,0,0
1.194,24.688,0,0,0,0,0
1.195,24.375,0,0,0,0,0
1.196,24.063,0,0,0,0,0
1.197,23.125,0,0,0,0,0
1.198,23.75,0,0,0,0,0
1.199,23.125,0,0,0,0,0
1.2,23.438,0,0,0,0,0
1.201,24.375,0,0,0,0,0
1.202,24.063,0,0,0,0,0
1.203,23.75,0,0,0,0,0
1.204,23.75,0,0,0,0,0
1.205,23.75,0,0,0,0,0
1.206,23.75,0,0,0,0,0
1.207,23.125,0,0,0,0,0
1.208,22.813,0,0,0,0,0
1.209,21.875,0,0,0,0,0
1.21,21.875,0,0,0,0,0
1.211,21.25,0,0,0,0,0
1.212,20.625,0,0,0,0,0
1.213,20.625,0,0,0,0,0
1.214,20.313,0,0,0,0,0
1.215,20,0,0,0,0,0
1.216,19.375,0,0,0,0,0
1.217,18.125,0,0,0,0,0
1.218,18.125,0,0,0,0,0
1.219,18.125,0,0,0,0,0
1.22,17.813,0,0,0,0,0
1.221,17.5,0,0,0,0,0
1.222,16.875,0,0,0,0,0
1.223,16.25,0,0,0,0,0
1.224,16.25,0,0,0,0,0
1.225,15.625,0,0,0,0,0
1.226,16.25,0,0,0,0,0
1.227,15.625,0,0,0,0,0
1.228,15,0,0,0,0,0
1.229,14.375,0,0,0,0,0
1.23,14.063,0,0,0,0,0
1.231,13.75,0,0,0,0,0
1.232,13.75,0,0,0,0,0
1.233,13.75,0,0,0,0,0
1.234,13.438,0,0,0,0,0
1.235,12.5,0,0,0,0,0
1.236,12.5,0,0,0,0,0
1.237,11.875,0,0,0,0,0
1.238,10.938,0,0,0,0,0
1.239,10.625,0,0,0,0,0
1.24,10.313,0,0,0,0,0
1.241,10,0,0,0,0,0
1.242,9.375,0,0,0,0,0
1.243,8.75,0,0,0,0,0
1.244,9.375,0,0,0,0,0
1.245,8.75,0,0,0,0,0
1.246,7.8125,0,0,0,0,0
1.247,7.5,0,0,0,0,0
1.248,7.5,0,0,0,0,0
1.249,6.875,0,0,0,0,0
1.25,7.1875,0,0,0,0,0
1.251,6.875,0,0,0,0,0
1.252,6.875,0,0,0,0,0
1.253,6.875,0,0,0,0,0
1.254,6.875,0,0,0,0,0
1.255,6.875,0,0,0,0,0
1.256,6.5625,0,0,0,0,0
1.257,6.25,0,0,0,0,0
1.258,5.625,0,0,0,0,0
1.259,5.625,0,0,0,0,0
1.26,5,0,0,0,0,0
1.261,5,0,0,0,0,0
1.262,4.0625,0,0,0,0,0
1.263,3.75,0,0,0,0,0
1.264,3.75,0,0,0,0,0
1.265,3.125,0,0,0,0,0
1.266,3.125,0,0,0,0,0
1.267,3.125,0,0,0,0,0
1.268,3.125,0,0,0,0,0
1.269,3.125,0,0,0,0,0
1.27,2.5,0,0,0,0,0
1.271,2.5,0,0,0,0,0
1.272,2.1875,0,0,0,0,0
1.273,1.875,0,0,0,0,0
1.274,1.875,0,0,0,0,0
1.275,1.875,0,0,0,0,0
1.276,1.5625,0,0,0,0,0
1.277,1.875,0,0,0,0,0
1.278,2.1875,0,0,0,0,0
1.279,2.5,0,0,0,0,0
1.28,2.1875,0,0,0,0,0
1.281,2.5,0,0,0,0,0
1.282,2.1875,0,0,0,0,0
1.283,1.875,0,0,0,0,0
1.284,1.875,0,0,0,0,0
1.285,1.875,0,0,0,0,0
1.286,1.875,0,0,0,0,0
1.287,1.875,0,0,0,0,0
1.288,1.875,0,0,0,0,0
1.289,1.875,0,0,0,0,0
1.29,1.875,0,0,0,0,0
1.291,1.875,0,0,0,0,0
1.292,1.25,0,0,0,0,0
1.293,1.875,0,0,0,0,0
1.294,1.25,0,0,0,0,0
1.295,1.25,0,0,0,0,0
1.296,0.625,0,0,0,0,0
1.297,0,0,0,0,0,0
1.298,0,0,0,0,0,0
1.299,0.625,0,0,0,0,0
1.3,0.3125,0,0,0,0,0
1.301,0.625,0,0,0,0,0
1.302,0,0,0,0,0,0
1.303,0,0,0,0,0,0
1.304,-0.3125,0,0,0,0,0
1.305,0,0,0,0,0,0
1.306,-0.9375,0,0,0,0,1
1.307,-0.625,0,0,0,0,0
1.308,-0.625,0,0,0,0,0
1.309,-1.25,0,0,0,0,0
1.31,-1.25,0,0,0,0,0
1.311,-1.25,0,0,0,0,0
1.312,-0.9375,0,0,0,0,0
1.313,-0.625,0,0,0,0,0
1.314,-0.625,0,0,0,0,0
1.315,-0.625,0,0,0,0,0
1.316,-0.625,0,0,0,0,0
1.317,-0.625,0,0,0,0,0
1.318,-0.9375,0,0,0,0,0
1.319,-0.625,0,0,0,0,0
1.32,-0.3125,0,0,0,0,0
1.321,0,0,0,0,0,0
1.322,0.3125,0,0,0,0,0
1.323,0.625,0,0,0,0,0
1.324,-0.3125,0,0,0,0,0
1.325,0,0,0,0,0,0
1.326,0.625,0,0,0,0,0
1.327,1.25,0,0,0,0,0
1.328,0.9375,0,0,0,0,0
1.329,0.625,0,0,0,0,0
1.33,0.625,0,0,0,0,0
1.331,0.625,0,0,0,0,0
1.332,0.625,0,0,0,0,0
1.333,0.625,0,0,0,0,0
1.334,0.9375,0,0,0,0,0
1.335,1.25,0,0,0,0,0
1.336,0.9375,0,0,0,0,0
1.337,0.625,0,0,0,0,0
1.338,0.625,0,0,0,0,0
1.339,0.625,0,0,0,0,0
1.34,0.625,0,0,0,0,0
1.341,0.625,0,0,0,0,0
1.342,-0.625,0,0,0,0,0
1.343,-0.625,0,0,0,0,0
1.344,-0.625,0,0,0,0,0
1.345,-0.625,0,0,0,0,0
1.346,-0.3125,0,0,0,0,0
1.347,0,0,0,0,0,0
1.348,0.3125,0,0,0,0,0
1.349,0,0,0,0,0,0
1.35,0.625,0,0,0,0,0
1.351,0.625,0,0,0,0,0
1.352,0.3125,0,0,0,0,0
1.353,0,0,0,0,0,0
1.354,0.3125,0,0,0,0,0
1.355,0.625,0,0,0,0,0
1.356,0.625,0,0,0,0,0
1.357,0.625,0,0,0,0,0
1.358,0.625,0,0,0,0,0
1.359,0.625,0,0,0,0,0
1.36,0.625,0,0,0,0,0
1.361,0.625,0,0,0,0,0
1.362,0.9375,0,0,0,0,0
1.363,1.25,0,0,0,0,0
1.364,1.25,0,0,0,0,0
1.365,0.625,0,0,0,0,0
1.366,0.3125,0,0,0,0,0
1.367,0,0,0,0,0,0
1.368,0.3125,0,0,0,0,0
1.369,0,0,0,0,0,0
1.37,-0.625,0,0,0,0,0
1.371,-0.625,0,0,0,0,0
1.372,0,0,0,0,0,0
1.373,0,0,0,0,0,0
1.374,0,0,0,0,0,0
1.375,0,0,0,0,0,0
1.376,-0.3125,0,0,0,0,0
1.377,-0.625,0,0,0,0,0
1.378,-0.3125,0,0,0,0,0
1.379,0,0,0,0,0,0
1.38,0,0,0,0,0,0
1.381,0,0,0,0,0,0
1.382,0,0,0,0,0,0
1.383,0,0,0,0,0,0
1.384,0.625,0,0,0,0,0
1.385,0.625,0,0,0,0,0
1.386,1.25,0,0,0,0,0
1.387,1.25,0,0,0,0,0
1.388,1.25,0,0,0,0,0
1.389,1.25,0,0,0,0,0
1.39,0.625,0,0,0,0,0
1.391,0,0,0,0,0,0
1.392,0.3125,0,0,0,0,0
1.393,0,0,0,0,0,0
1.394,0.3125,0,0,0,0,0
1.395,0.625,0,0,0,0,0
1.396,0,0,0,0,0,0
1.397,0.625,0,0,0,0,0
1.398,-0.3125,0,0,0,0,0
1.399,-0.625,0,0,0,0,0
1.4,0.3125,0,0,0,0,0
1.401,0,0,0,0,0,0
1.402,0,0,0,0,0,0
1.403,0,0,0,0,0,0
1.404,0,0,0,0,0,0
1.405,0,0,0,0,0,0
1.406,0.3125,0,0,0,0,0
1.407,0.625,0,0,0,0,0
1.408,0.3125,0,0,0,0,0
1.409,0,0,0,0,0,0
1.41,0,0,0,0,0,0
1.411,0,0,0,0,0,0
1.412,0,0,0,0,0,0
1.413,0,0,0,0,0,0
1.414,0.625,0,0,0,0,0
1.415,0.625,0,0,0,0,0
1.416,0.625,0,0,0,0,0
1.417,0,0,0,0,0,0
1.418,0.625,0,0,0,0,0
1.419,0.625,0,0,0,0,0
1.42,0.625,0,0,0,0,0
1.421,0.625,0,0,0,0,0
1.422,0.3125,0,0,0,0,0
1.423,1.25,0,0,0,0,0
1.424,0.625,0,0,0,0,0
1.425,0.625,0,0,0,0,0
1.426,1.5625,0,0,0,0,0
1.427,1.25,0,0,0,0,0
1.428,0.625,0,0,0,0,0
1.429,0.625,0,0,0,0,0
1.43,0.3125,0,0,0,0,0
1.431,0.625,0,0,0,0,0
1.432,0.625,0,0,0,0,0
1.433,0.625,0,0,0,0,0
1.434,0.625,0,0,0,0,0
1.435,0.625,0,0,0,0,0
1.436,0.9375,0,0,0,0,0
1.437,0.625,0,0,0,0,0
1.438,0.625,0,0,0,0,0
1.439,0.625,0,0,0,0,0
1.44,0.9375,0,0,0,0,0
1.441,0.625,0,0,0,0,0
1.442,0.3125,0,0,0,0,0
1.443,0,0,0,0,0,0
1.444,-0.3125,0,0,0,0,0
1.445,-0.625,0,0,0,0,0
1.446,-0.3125,0,0,0,0,0
1.447,0,0,0,0,0,0
1.448,0,0,0,0,0,0
1.449,0,0,0,0,0,0
1.45,-0.3125,0,0,0,0,0
1.451,-0.625,0,0,0,0,0
1.452,0,0,0,0,0,0
1.453,0,0,0,0,0,0
1.454,-0.625,0,0,0,0,0
1.455,-0.625,0,0,0,0,0
1.456,-0.9375,0,0,0,0,0
1.457,-1.25,0,0,0,0,0
1.458,-0.9375,0,0,0,0,0
1.459,-0.625,0,0,0,0,0
1.46,-0.3125,0,0,0,0,0
1.461,0,0,0,0,0,0
1.462,-0.3125,0,0,0,0,0
1.463,-0.625,0,0,0,0,0
1.464,-0.9375,0,0,0,0,0
1.465,-1.25,0,0,0,0,0
1.466,-0.625,0,0,0,0,0
1.467,0,0,0,0,0,0
1.468,0,0,0,0,0,0
1.469,-0.625,0,0,0,0,0
1.47,0,0,0,0,0,0
1.471,0,0,0,0,0,0
1.472,0,0,0,0,0,0
1.473,0,0,0,0,0,0
1.474,0,0,0,0,0,0
1.475,0,0,0,0,0,0
1.476,0,0,0,0,0,0
1.477,0,0,0,0,0,0
1.478,-0.3125,0,0,0,0,0
1.479,-0.625,0,0,0,0,0
1.48,-0.625,0,0,0,0,0
1.481,-0.625,0,0,0,0,0
1.482,-0.625,0,0,0,0,0
1.483,-0.625,0,0,0,0,0
1.484,-0.9375,0,0,0,0,0
1.485,-1.25,0,0,0,0,0
1.486,-0.9375,0,0,0,0,0
1.487,-0.625,0,0,0,0,0
1.488,-0.625,0,0,0,0,0
1.489,-0.625,0,0,0,0,0
1.49,-0.625,0,0,0,0,0
1.491,-0.625,0,0,0,0,0
1.492,-0.3125,0,0,0,0,0
1.493,0,0,0,0,0,0
1.494,0,0,0,0,0,0
1.495,0,0,0,0,0,0
1.496,-0.3125,0,0,0,0,0
1.497,-0.625,0,0,0,0,0
1.498,-0.3125,0,0,0,0,0
1.499,0,0,0,0,0,0
1.5,0.3125,0,0,0,0,0
1.501,0,0,0,0,0,0
1.502,0.9375,0,0,0,0,0
1.503,0.625,0,0,0,0,0
1.504,0.3125,0,0,0,0,0
1.505,0,0,0,0,0,0
1.506,0,0,0,0,0,0
1.507,0.625,0,0,0,0,0
1.508,0.9375,0,0,0,0,0
1.509,0.625,0,0,0,0,0
1.51,1.25,0,0,0,0,0
1.511,1.25,0,0,0,0,0
1.512,0.625,0,0,0,0,0
1.513,1.25,0,0,0,0,0
1.514,1.25,0,0,0,0,0
1.515,0.625,0,0,0,0,0
1.516,0.3125,0,0,0,0,0
1.517,0,0,0,0,0,0
1.518,0,0,0,0,0,0
1.519,0.625,0,0,0,0,0
1.52,0.9375,0,0,0,0,0
1.521,0.625,0,0,0,0,0
1.522,1.25,0,0,0,0,0
1.523,0.625,0,0,0,0,0
1.524,0.3125,0,0,0,0,0
1.525,0.625,0,0,0,0,0
1.526,0.3125,0,0,0,0,0
1.527,0,0,0,0,0,0
1.528,0.3125,0,0,0,0,0
1.529,0.625,0,0,0,0,0
1.53,-0.3125,0,0,0,0,0
1.531,-0.625,0,0,0,0,0
1.532,-0.3125,0,0,0,0,0
1.533,-0.625,0,0,0,0,0
1.534,-0.3125,0,0,0,0,0
1.535,0,0,0,0,0,0
1.536,-0.625,0,0,0,0,0
1.537,0,0,0,0,0,0
1.538,0.3125,0,0,0,0,0
1.539,0.625,0,0,0,0,0
1.54,0.625,0,0,0,0,0
1.541,0.625,0,0,0,0,0
1.542,0.625,0,0,0,0,0
1.543,0.625,0,0,0,0,0
1.544,0.9375,0,0,0,0,0
1.545,1.25,0,0,0,0,0
1.546,0.625,0,0,0,0,0
1.547,0.625,0,0,0,0,0
1.548,0.625,0,0,0,0,0
1.549,0.625,0,0,0,0,0
1.55,0.625,0,0,0,0,0
1.551,0.625,0,0,0,0,0
1.552,0.625,0,0,0,0,0
1.553,0.625,0,0,0,0,0
1.554,0.625,0,0,0,0,0
1.555,0.625,0,0,0,0,0
1.556,0.625,0,0,0,0,0
1.557,0.625,0,0,0,0,0
1.558,0.3125,0,0,0,0,0
1.559,0.625,0,0,0,0,0
1.56,0.3125,0,0,0,0,0
1.561,0,0,0,0,0,0
1.562,0.3125,0,0,0,0,0
1.563,0,0,0,0,0,0
1.564,0.3125,0,0,0,0,0
1.565,0,0,0,0,0,0
1.566,-0.3125,0,0,0,0,0
1.567,-0.625,0,0,0,0,0
1.568,-0.625,0,0,0,0,0
1.569,-0.625,0,0,0,0,0
1.57,0,0,0,0,0,0
1.571,0,0,0,0,0,0
1.572,0,0,0,0,0,0
1.573,0,0,0,0,0,0
1.574,0,0,0,0,0,0
1.575,0.625,0,0,0,0,0
1.576,-0.3125,0,0,0,0,0
1.577,-0.625,0,0,0,0,0
1.578,-0.9375,0,0,0,0,0
1.579,-0.625,0,0,0,0,0
1.58,-0.9375,0,0,0,0,0
1.581,-1.25,0,0,0,0,0
1.582,-0.9375,0,0,0,0,0
1.583,-1.25,0,0,0,0,0
1.584,-0.9375,0,0,0,0,0
1.585,-1.25,0,0,0,0,0
1.586,-0.3125,0,0,0,0,0
1.587,-0.625,0,0,0,0,0
1.588,-0.3125,0,0,0,0,0
1.589,-0.625,0,0,0,0,0
1.59,-0.3125,0,0,0,0,0
1.591,-0.625,0,0,0,0,0
1.592,-0.9375,0,0,0,0,0
1.593,-1.25,0,0,0,0,0
1.594,-0.3125,0,0,0,0,0
1.595,-0.625,0,0,0,0,0
1.596,-0.9375,0,0,0,0,0
1.597,-1.25,0,0,0,0,0
1.598,-0.625,0,0,0,0,0
1.599,-1.25,0,0,0,0,0
1.6,-1.25,0,0,0,0,0
1.601,-0.625,0,0,0,0,0
1.602,-0.9375,0,0,0,0,0
1.603,-1.25,0,0,0,0,0
1.604,-1.25,0,0,0,0,0
1.605,-1.25,0,0,0,0,0
1.606,-0.9375,0,0,0,0,0
1.607,-0.625,0,0,0,0,0
1.608,-0.625,0,0,0,0,0
1.609,-0.625,0,0,0,0,0
1.61,0,0,0,0,0,0
1.611,-0.625,0,0,0,0,0
1.612,-0.625,0,0,0,0,0
1.613,-0.625,0,0,0,0,0
1.614,-1.25,0,0,0,0,0
1.615,-1.25,0,0,0,0,0
1.616,-1.25,0,0,0,0,0
1.617,-0.625,0,0,0,0,0
1.618,-1.25,0,0,0,0,0
1.619,-1.25,0,0,0,0,0
1.62,-1.25,0,0,0,0,0
1.621,-1.25,0,0,0,0,0
1.622,-1.25,0,0,0,0,0
1.623,-1.25,0,0,0,0,0
1.624,-1.5625,0,0,0,0,0
1.625,-1.25,0,0,0,0,0
1.626,-1.5625,0,0,0,0,0
1.627,-1.25,0,0,0,0,0
1.628,-1.5625,0,0,0,0,0
1.629,-2.5,0,0,0,0,0
1.63,-1.5625,0,0,0,0,0
1.631,-1.25,0,0,0,0,0
1.632,-1.25,0,0,0,0,0
1.633,-1.25,0,0,0,0,0
1.634,-1.5625,0,0,0,0,0
1.635,-1.25,0,0,0,0,0
1.636,-1.5625,0,0,0,0,0
1.637,-2.5,0,0,0,0,0
1.638,-2.5,0,0,0,0,0
1.639,-2.5,0,0,0,0,0
1.64,-2.5,0,0,0,0,0
1.641,-2.5,0,0,0,0,0
1.642,-1.5625,0,0,0,0,0
1.643,-1.25,0,0,0,0,0
1.644,-0.9375,0,0,0,0,0
1.645,-0.625,0,0,0,0,0
1.646,-1.25,0,0,0,0,0
1.647,-1.25,0,0,0,0,0
1.648,-1.5625,0,0,0,0,0
1.649,-1.875,0,0,0,0,0
1.65,-0.9375,0,0,0,0,0
1.651,-1.25,0,0,0,0,0
1.652,-1.5625,0,0,0,0,0
1.653,-1.875,0,0,0,0,0
1.654,-0.9375,0,0,0,0,0
1.655,-1.25,0,0,0,0,0
1.656,-0.9375,0,0,0,0,0
1.657,-1.25,0,0,0,0,0
1.658,-0.9375,0,0,0,0,0
1.659,-1.25,0,0,0,0,0
1.66,-1.25,0,0,0,0,0
1.661,-1.25,0,0,0,0,0
1.662,-1.5625,0,0,0,0,0
1.663,-1.875,0,0,0,0,0
1.664,-1.875,0,0,0,0,0
1.665,-1.875,0,0,0,0,0
1.666,-1.875,0,0,0,0,0
1.667,-1.875,0,0,0,0,0
1.668,-1.5625,0,0,0,0,0
1.669,-1.875,0,0,0,0,0
1.67,-2.1875,0,0,0,0,0
1.671,-2.5,0,0,0,0,0
1.672,-2.1875,0,0,0,0,0
1.673,-1.875,0,0,0,0,0
1.674,-1.875,0,0,0,0,0
1.675,-1.875,0,0,0,0,0
1.676,-2.1875,0,0,0,0,0
1.677,-2.5,0,0,0,0,0
1.678,-2.1875,0,0,0,0,0
1.679,-2.5,0,0,0,0,0
1.68,-1.25,0,0,0,0,0
1.681,-0.625,0,0,0,0,0
1.682,-0.9375,0,0,0,0,0
1.683,-1.25,0,0,0,0,0
1.684,-1.25,0,0,0,0,0
1.685,-1.875,0,0,0,0,0
1.686,-1.5625,0,0,0,0,0
1.687,-1.25,0,0,0,0,0
1.688,-1.25,0,0,0,0,0
1.689,-1.25,0,0,0,0,0
1.69,-1.25,0,0,0,0,0
1.691,-1.25,0,0,0,0,0
1.692,-1.5625,0,0,0,0,0
1.693,-1.875,0,0,0,0,0
1.694,-2.1875,0,0,0,0,0
1.695,-1.875,0,0,0,0,0
1.696,-2.8125,0,0,0,0,0
1.697,-2.5,0,0,0,0,0
1.698,-2.5,0,0,0,0,0
1.699,-2.5,0,0,0,0,0
1.7,-1.875,0,0,0,0,0
1.701,-1.25,0,0,0,0,0
1.702,-1.5625,0,0,0,0,0
1.703,-1.875,0,0,0,0,0
1.704,-1.5625,0,0,0,0,0
1.705,-1.25,0,0,0,0,0
1.706,-1.5625,0,0,0,0,0
1.707,-1.875,0,0,0,0,0
1.708,-1.5625,0,0,0,0,0
1.709,-1.25,0,0,0,0,0
1.71,-1.25,0,0,0,0,0
1.711,-1.25,0,0,0,0,0
1.712,-0.9375,0,0,0,0,0
1.713,-1.25,0,0,0,0,0
1.714,-1.5625,0,0,0,0,0
1.715,-1.25,0,0,0,0,0
1.716,-1.25,0,0,0,0,0
1.717,-1.25,0,0,0,0,0
1.718,-0.625,0,0,0,0,0
1.719,-1.25,0,0,0,0,0
1.72,-1.5625,0,0,0,0,0
1.721,-1.875,0,0,0,0,0
1.722,-1.25,0,0,0,0,0
1.723,-1.25,0,0,0,0,0
1.724,-1.25,0,0,0,0,0
1.725,-1.25,0,0,0,0,0
1.726,-1.5625,0,0,0,0,0
1.727,-1.25,0,0,0,0,0
1.728,-1.875,0,0,0,0,0
1.729,-1.875,0,0,0,0,0
1.73,-1.5625,0,0,0,0,0
1.731,-1.25,0,0,0,0,0
1.732,-0.625,0,0,0,0,0
1.733,-0.625,0,0,0,0,0
1.734,-0.625,0,0,0,0,0
1.735,-0.625,0,0,0,0,0
1.736,-0.625,0,0,0,0,0
1.737,-0.625,0,0,0,0,0
1.738,-0.9375,0,0,0,0,0
1.739,-1.25,0,0,0,0,0
1.74,-1.875,0,0,0,0,0
1.741,-1.875,0,0,0,0,0
1.742,-1.5625,0,0,0,0,0
1.743,-1.875,0,0,0,0,0
1.744,-1.5625,0,0,0,0,0
1.745,-1.875,0,0,0,0,0
1.746,-2.1875,0,0,0,0,0
1.747,-1.875,0,0,0,0,0
1.748,-1.875,0,0,0,0,0
1.749,-1.875,0,0,0,0,0
1.75,-1.875,0,0,0,0,0
1.751,-1.875,0,0,0,0,0
1.752,-1.25,0,0,0,0,0
1.753,-0.625,0,0,0,0,0
1.754,-0.9375,0,0,0,0,0
1.755,-1.25,0,0,0,0,0
1.756,-1.25,0,0,0,0,0
1.757,-0.625,0,0,0,0,0
1.758,-0.9375,0,0,0,0,0
1.759,-0.625,0,0,0,0,0
1.76,-0.3125,0,0,0,0,0
1.761,-0.625,0,0,0,0,0
1.762,-0.9375,0,0,0,0,0
1.763,-1.25,0,0,0,0,0
1.764,-1.25,0,0,0,0,0
1.765,-1.25,0,0,0,0,0
1.766,-1.875,0,0,0,0,0
1.767,-1.875,0,0,0,0,0
1.768,-2.1875,0,0,0,0,0
1.769,-2.5,0,0,0,0,0
1.77,-3.125,0,0,0,0,0
1.771,-3.125,0,0,0,0,0
1.772,-3.125,0,0,0,0,0
1.773,-3.125,0,0,0,0,0
1.774,-2.8125,0,0,0,0,0
1.775,-2.5,0,0,0,0,0
1.776,-2.8125,0,0,0,0,0
1.777,-3.125,0,0,0,0,0
1.778,-3.125,0,0,0,0,0
1.779,-3.125,0,0,0,0,0
1.78,-3.4375,0,0,0,0,0
1.781,-3.75,0,0,0,0,0
1.782,-3.4375,0,0,0,0,0
1.783,-3.125,0,0,0,0,0
1.784,-3.4375,0,0,0,0,0
1.785,-3.75,0,0,0,0,0
1.786,-3.75,0,0,0,0,0
1.787,-3.75,0,0,0,0,0
1.788,-3.75,0,0,0,0,0
1.789,-3.75,0,0,0,0,0
1.79,-3.4375,0,0,0,0,0
1.791,-3.125,0,0,0,0,0
1.792,-3.125,0,0,0,0,0
1.793,-3.125,0,0,0,0,0
1.794,-3.4375,0,0,0,0,0
1.795,-3.125,0,0,0,0,0
1.796,-3.125,0,0,0,0,0
1.797,-3.125,0,0,0,0,0
1.798,-2.5,0,0,0,0,0
1.799,-2.5,0,0,0,0,0
1.8,-3.125,0,0,0,0,0
1.801,-2.5,0,0,0,0,0
1.802,-3.125,0,0,0,0,0
1.803,-3.125,0,0,0,0,0
1.804,-3.4375,0,0,0,0,0
1.805,-3.125,0,0,0,0,0
1.806,-3.75,0,0,0,0,0
1.807,-3.125,0,0,0,0,0
1.808,-2.8125,0,0,0,0,0
1.809,-2.5,0,0,0,0,0
1.81,-2.8125,0,0,0,0,0
1.811,-3.125,0,0,0,0,0
1.812,-3.125,0,0,0,0,0
1.813,-3.125,0,0,0,0,0
1.814,-2.5,0,0,0,0,0
1.815,-2.5,0,0,0,0,0
1.816,-2.8125,0,0,0,0,0
1.817,-3.125,0,0,0,0,0
1.818,-3.125,0,0,0,0,0
1.819,-3.125,0,0,0,0,0
1.82,-2.8125,0,0,0,0,0
1.821,-3.125,0,0,0,0,0
1.822,-2.5,0,0,0,0,0
1.823,-2.5,0,0,0,0,0
1.824,-2.8125,0,0,0,0,0
1.825,-3.125,0,0,0,0,0
1.826,-3.125,0,0,0,0,0
1.827,-3.125,0,0,0,0,0
1.828,-3.4375,0,0,0,0,0
1.829,-3.75,0,0,0,0,0
1.83,-2.8125,0,0,0,0,0
1.831,-3.125,0,0,0,0,0
1.832,-2.8125,0,0,0,0,0
1.833,-2.5,0,0,0,0,0
1.834,-1.875,0,0,0,0,0
1.835,-1.875,0,0,0,0,0
1.836,-1.875,0,0,0,0,0
1.837,-1.875,0,0,0,0,0
1.838,-1.875,0,0,0,0,0
1.839,-1.875,0,0,0,0,0
1.84,-2.1875,0,0,0,0,0
1.841,-2.5,0,0,0,0,0
1.842,-2.1875,0,0,0,0,0
1.843,-2.5,0,0,0,0,0
1.844,-1.875,0,0,0,0,0
1.845,-1.875,0,0,0,0,0
1.846,-1.875,0,0,0,0,0
1.847,-1.875,0,0,0,0,0
1.848,-1.875,0,0,0,0,0
1.849,-1.875,0,0,0,0,0
1.85,-1.5625,0,0,0,0,0
1.851,-1.875,0,0,0,0,0
1.852,-2.5,0,0,0,0,0
1.853,-2.5,0,0,0,0,0
1.854,-2.5,0,0,0,0,0
1.855,-1.875,0,0,0,0,0
1.856,-2.5,0,0,0,0,0
1.857,-2.5,0,0,0,0,0
1.858,-2.5,0,0,0,0,0
1.859,-2.5,0,0,0,0,0
1.86,-2.5,0,0,0,0,0
1.861,-2.5,0,0,0,0,0
1.862,-2.5,0,0,0,0,0
1.863,-2.5,0,0,0,0,0
1.864,-3.125,0,0,0,0,0
1.865,-2.5,0,0,0,0,0
1.866,-2.1875,0,0,0,0,0
1.867,-1.875,0,0,0,0,0
1.868,-1.875,0,0,0,0,0
1.869,-1.875,0,0,0,0,0
1.87,-2.1875,0,0,0,0,0
1.871,-2.5,0,0,0,0,0
1.872,-2.5,0,0,0,0,0
1.873,-2.5,0,0,0,0,0
1.874,-2.1875,0,0,0,0,0
1.875,-1.875,0,0,0,0,0
1.876,-2.1875,0,0,0,0,0
1.877,-2.5,0,0,0,0,0
1.878,-2.1875,0,0,0,0,0
1.879,-2.5,0,0,0,0,0
1.88,-2.1875,0,0,0,0,0
1.881,-2.5,0,0,0,0,0
1.882,-2.8125,0,0,0,0,0
1.883,-3.125,0,0,0,0,0
1.884,-2.8125,0,0,0,0,0
1.885,-2.5,0,0,0,0,0
1.886,-2.8125,0,0,0,0,0
1.887,-2.5,0,0,0,0,0
1.888,-1.875,0,0,0,0,0
1.889,-1.875,0,0,0,0,0
1.89,-2.1875,0,0,0,0,0
1.891,-2.5,0,0,0,0,0
1.892,-2.1875,0,0,0,0,0
1.893,-1.875,0,0,0,0,0
1.894,-1.875,0,0,0,0,0
1.895,-1.875,0,0,0,0,0
1.896,-2.1875,0,0,0,0,0
1.897,-1.25,0,0,0,0,0
1.898,-1.875,1,0,0,0,0
1.899,-1.875,0,0,0,0,0
1.9,-1.5625,0,0,0,0,0
1.901,-1.25,0,0,0,0,0
1.902,-1.875,0,0,0,0,0
1.903,-1.25,0,0,0,0,0
1.904,-1.875,0,0,0,0,0
1.905,-1.875,0,0,0,0,0
1.906,-2.8125,0,0,0,0,0
1.907,-2.5,0,0,0,0,0
1.908,-3.125,0,0,0,0,0
1.909,-3.125,0,0,0,0,0
1.91,-3.125,0,0,0,0,0
1.911,-3.75,0,0,0,0,0
1.912,-3.4375,0,0,0,0,0
1.913,-3.75,0,0,0,0,0
1.914,-3.75,0,0,0,0,0
1.915,-4.375,0,0,0,0,0
1.916,-4.6875,0,0,0,0,0
1.917,-5,0,0,0,0,0
1.918,-5.3125,0,0,0,0,0
1.919,-5,0,0,0,0,0
1.92,-5.9375,0,0,0,0,0
1.921,-5.625,0,0,0,0,0
1.922,-6.5625,0,0,0,0,0
1.923,-7.5,0,0,0,0,0
1.924,-8.75,0,0,0,0,0
1.925,-10.625,0,0,0,0,0
1.926,-11.25,0,0,0,0,0
1.927,-13.125,0,0,0,0,0
1.928,-15.625,0,0,0,0,0
1.929,-18.125,0,0,0,0,0
1.93,-20.313,0,0,0,0,0
1.931,-22.5,0,0,0,0,0
1.932,-22.813,0,0,0,0,0
1.933,-23.75,0,0,0,0,0
1.934,-25.313,0,0,0,0,0
1.935,-26.25,0,0,0,0,0
1.936,-29.063,0,0,0,0,0
1.937,-30.625,0,0,0,0,0
1.938,-31.25,0,0,0,0,0
1.939,-32.5,0,0,0,0,0
1.94,-33.75,0,0,0,0,0
1.941,-34.375,0,0,0,0,0
1.942,-35.625,0,0,0,0,0
1.943,-36.25,0,0,0,0,0
1.944,-36.563,0,0,0,0,0
1.945,-36.875,0,0,0,0,0
1.946,-37.5,0,0,0,0,0
1.947,-37.5,0,0,0,0,0
1.948,-37.813,0,0,0,0,0
1.949,-38.125,0,0,0,0,0
1.95,-38.75,0,0,0,0,0
1.951,-40,0,0,0,0,0
1.952,-40.938,0,0,0,0,0
1.953,-41.875,0,0,0,0,0
1.954,-42.813,0,0,0,0,0
1.955,-43.125,0,1,0,0,0
1.956,-44.063,0,0,0,0,0
1.957,-44.375,0,0,0,0,0
1.958,-42.813,0,0,0,0,0
1.959,-41.25,0,0,0,0,0
1.96,-39.375,0,0,0,0,0
1.961,-37.5,0,0,0,0,0
1.962,-36.563,0,0,0,0,0
1.963,-36.25,0,0,0,0,0
1.964,-35.625,0,0,0,0,0
1.965,-35,0,0,0,0,0
1.966,-34.688,0,0,0,0,0
1.967,-33.125,0,0,0,0,0
1.968,-33.438,0,0,0,0,0
1.969,-33.125,0,0,0,0,0
1.97,-32.813,0,0,0,0,0
1.971,-31.875,0,0,0,0,0
1.972,-31.25,0,0,0,0,0
1.973,-30.625,0,0,0,0,0
1.974,-29.375,0,0,0,0,0
1.975,-28.125,0,0,0,0,0
1.976,-27.188,0,0,0,0,0
1.977,-26.25,0,0,0,0,0
1.978,-25.313,0,0,0,0,0
1.979,-24.375,0,0,0,0,0
1.98,-24.375,0,0,0,0,0
1.981,-23.75,0,0,0,0,0
1.982,-23.125,0,0,0,0,0
1.983,-22.5,0,0,0,0,0
1.984,-21.563,0,0,0,0,0
1.985,-20,0,0,0,0,0
1.986,-17.188,0,0,0,0,0
1.987,-14.375,0,0,0,0,0
1.988,-13.438,0,0,0,0,0
1.989,-12.5,0,0,0,0,0
1.99,-10,0,0,0,0,0
1.991,-9.375,0,0,0,0,0
1.992,-8.125,0,0,0,0,0
1.993,-7.5,0,0,0,0,0
1.994,-6.25,0,0,0,0,0
1.995,-5,0,0,0,0,0
1.996,-4.0625,0,0,0,0,0
1.997,-3.125,0,0,0,0,0
1.998,-2.1875,0,0,0,0,0
1.999,-0.625,0,0,0,0,0
2,-0.3125,0,0,0,0,0
2.001,0.625,0,0,0,0,0
2.002,1.5625,0,0,0,0,0
2.003,1.875,0,0,0,0,0
2.004,1.5625,0,0,0,0,0
2.005,1.875,0,0,0,0,0
2.006,2.1875,0,0,0,0,0
2.007,2.5,0,0,0,0,0
2.008,2.5,0,0,0,0,0
2.009,2.5,0,0,0,0,0
2.01,2.8125,0,0,0,0,0
2.011,2.5,0,0,0,0,0
2.012,3.4375,0,0,0,0,0
2.013,3.125,0,0,0,0,0
2.014,3.75,0,0,1,0,0
2.015,3.75,0,0,0,0,0
2.016,2.8125,0,0,0,0,0
2.017,3.125,0,0,0,0,0
2.018,3.4375,0,0,0,0,0
2.019,3.75,0,0,0,0,0
2.02,4.0625,0,0,0,0,0
2.021,4.375,0,0,0,0,0
2.022,5,0,0,0,0,0
2.023,5,0,0,0,0,0
2.024,5,0,0,0,0,0
2.025,5,0,0,0,0,0
2.026,4.0625,0,0,0,0,0
2.027,4.375,0,0,0,0,0
2.028,4.375,0,0,0,0,0
2.029,4.375,0,0,0,0,0
2.03,4.0625,0,0,0,0,0
2.031,3.75,0,0,0,0,0
2.032,4.375,0,0,0,0,0
2.033,4.375,0,0,0,0,0
2.034,4.375,0,0,0,0,0
2.035,4.375,0,0,0,0,0
2.036,5,0,0,0,0,0
2.037,5,0,0,0,0,0
2.038,4.6875,0,0,0,0,0
2.039,5,0,0,0,0,0
2.04,5,0,0,0,0,0
2.041,5.625,0,0,0,0,0
2.042,4.6875,0,0,0,0,0
2.043,4.375,0,0,0,0,0
2.044,5.3125,0,0,0,0,0
2.045,5.625,0,0,0,0,0
2.046,5.3125,0,0,0,0,0
2.047,5.625,0,0,0,0,0
2.048,5.3125,0,0,0,0,0
2.049,5,0,0,0,0,0
2.05,5.3125,0,0,0,0,0
2.051,5,0,0,0,0,0
2.052,5,0,0,0,0,0
2.053,5,0,0,0,0,0
2.054,5,0,0,0,0,0
2.055,5,0,0,0,0,0
2.056,5.625,0,0,0,0,0
2.057,5.625,0,0,0,0,0
2.058,5.3125,0,0,0,0,0
2.059,5.625,0,0,0,0,0
2.06,5.3125,0,0,0,0,0
2.061,5.625,0,0,0,0,0
2.062,5.625,0,0,0,0,0
2.063,5.625,0,0,0,0,0
2.064,5.9375,0,0,0,0,0
2.065,6.25,0,0,0,0,0
2.066,5.625,0,0,0,0,0
2.067,5.625,0,0,0,0,0
2.068,5.9375,0,0,0,0,0
2.069,5.625,0,0,0,0,0
2.07,5.625,0,0,0,0,0
2.071,5.625,0,0,0,0,0
2.072,6.25,0,0,0,0,0
2.073,6.875,0,0,0,0,0
2.074,6.875,0,0,0,0,0
2.075,6.875,0,0,0,0,0
2.076,6.875,0,0,0,0,0
2.077,7.5,0,0,0,0,0
2.078,6.875,0,0,0,0,0
2.079,7.5,0,0,0,0,0
2.08,7.8125,0,0,0,0,0
2.081,7.5,0,0,0,0,0
2.082,7.1875,0,0,0,0,0
2.083,6.875,0,0,0,0,0
2.084,6.25,0,0,0,0,0
2.085,6.25,0,0,0,0,0
2.086,5.625,0,0,0,0,0
2.087,6.25,0,0,0,0,0
2.088,6.25,0,0,0,0,0
2.089,6.875,0,0,0,0,0
2.09,6.25,0,0,0,0,0
2.091,6.875,0,0,0,0,0
2.092,5.9375,0,0,0,0,0
2.093,5.625,0,0,0,0,0
2.094,5.9375,0,0,0,0,0
2.095,6.25,0,0,0,0,0
2.096,6.5625,0,0,0,0,0
2.097,6.25,0,0,0,0,0
2.098,6.5625,0,0,0,0,0
2.099,6.25,0,0,0,0,0
2.1,6.25,0,0,0,0,0
2.101,6.875,0,0,0,0,0
2.102,6.875,0,0,0,0,0
2.103,6.875,0,0,0,0,0
2.104,5.9375,0,0,0,0,0
2.105,6.25,0,0,0,0,0
2.106,7.1875,0,0,0,0,0
2.107,7.5,0,0,0,0,0
2.108,7.8125,0,0,0,0,0
2.109,7.5,0,0,0,0,0
2.11,7.8125,0,0,0,0,0
2.111,7.5,0,0,0,0,0
2.112,7.8125,0,0,0,0,0
2.113,8.125,0,0,0,0,0
2.114,8.125,0,0,0,0,0
2.115,8.125,0,0,0,0,0
2.116,7.8125,0,0,0,0,0
2.117,7.5,0,0,0,0,0
2.118,7.5,0,0,0,0,0
2.119,8.125,0,0,0,0,0
2.12,7.8125,0,0,0,0,0
2.121,8.125,0,0,0,0,0
2.122,8.125,0,0,0,0,0
2.123,8.75,0,0,0,0,0
2.124,8.4375,0,0,0,0,0
2.125,8.125,0,0,0,0,0
2.126,8.4375,0,0,0,0,0
2.127,8.75,0,0,0,0,0
2.128,8.4375,0,0,0,0,0
2.129,8.75,0,0,0,0,0
2.13,8.4375,0,0,0,0,0
2.131,8.75,0,0,0,0,0
2.132,9.0625,0,0,0,0,0
2.133,8.75,0,0,0,0,0
2.134,8.75,0,0,0,0,0
2.135,9.375,0,0,0,0,0
2.136,9.375,0,0,0,0,0
2.137,9.375,0,0,0,0,0
2.138,9.6875,0,0,0,0,0
2.139,10,0,0,0,0,0
2.14,9.6875,0,0,0,0,0
2.141,9.375,0,0,0,0,0
2.142,9.375,0,0,0,0,0
2.143,9.375,0,0,0,0,0
2.144,9.0625,0,0,0,0,0
2.145,9.375,0,0,0,0,0
2.146,10,0,0,0,0,0
2.147,10.625,0,0,0,0,0
2.148,10.313,0,0,0,0,0
2.149,10,0,0,0,0,0
2.15,10.938,0,0,0,0,0
2.151,11.25,0,0,0,0,0
2.152,11.25,0,0,0,0,0
2.153,11.25,0,0,0,0,0
2.154,10.938,0,0,0,0,0
2.155,10.625,0,0,0,0,0
2.156,10.313,0,0,0,0,0
2.157,10.625,0,0,0,0,0
2.158,10.938,0,0,0,0,0
2.159,11.25,0,0,0,0,0
2.16,11.563,0,0,0,0,0
2.161,11.875,0,0,0,0,0
2.162,11.563,0,0,0,0,0
2.163,11.25,0,0,0,0,0
2.164,12.188,0,0,0,0,0
2.165,12.5,0,0,0,0,0
2.166,12.813,0,0,0,0,0
2.167,13.125,0,0,0,0,0
2.168,12.813,0,0,0,0,0
2.169,13.125,0,0,0,0,0
2.17,13.125,0,0,0,0,0
2.171,13.125,0,0,0,0,0
2.172,13.438,0,0,0,0,0
2.173,13.75,0,0,0,0,0
2.174,14.375,0,0,0,0,0
2.175,14.375,0,0,0,0,0
2.176,14.375,0,0,0,0,0
2.177,14.375,0,0,0,0,0
2.178,14.063,0,0,0,0,0
2.179,13.75,0,0,0,0,0
2.18,14.375,0,0,0,0,0
2.181,15,0,0,0,0,0
2.182,14.063,0,0,0,0,0
2.183,14.375,0,0,0,0,0
2.184,14.063,0,0,0,0,0
2.185,13.75,0,0,0,0,0
2.186,14.688,0,0,0,0,0
2.187,15.625,0,0,0,0,0
2.188,15.938,0,0,0,0,0
2.189,16.25,0,0,0,0,0
2.19,16.25,0,0,0,0,0
2.191,16.25,0,0,0,0,0
2.192,16.875,0,0,0,0,0
2.193,16.875,0,0,0,0,0
2.194,17.813,0,0,0,0,0
2.195,18.125,0,0,0,0,0
2.196,17.813,0,0,0,0,0
2.197,17.5,0,0,0,0,0
2.198,17.5,0,0,0,0,0
2.199,18.125,0,0,0,0,0
2.2,18.75,0,0,0,0,0
2.201,19.375,0,0,0,0,0
2.202,19.063,0,0,0,0,0
2.203,19.375,0,0,0,0,0
2.204,19.375,0,0,0,0,0
2.205,20,0,0,0,0,0
2.206,19.688,0,0,0,0,0
2.207,20.625,0,0,0,0,0
2.208,20,0,0,0,0,0
2.209,20,0,0,0,0,0
2.21,20,0,0,0,0,0
2.211,20,0,0,0,0,0
2.212,20.313,0,0,0,0,0
2.213,20,0,0,0,0,0
2.214,20.938,0,0,0,0,0
2.215,21.25,0,0,0,0,0
2.216,21.25,0,0,0,0,0
2.217,21.25,0,0,0,0,0
2.218,22.188,0,0,0,0,0
2.219,22.5,0,0,0,0,0
2.22,22.813,0,0,0,0,0
2.221,23.75,0,0,0,0,0
2.222,23.75,0,0,0,0,0
2.223,23.75,0,0,0,0,0
2.224,23.438,0,0,0,0,0
2.225,23.75,0,0,0,0,0
2.226,24.063,0,0,0,0,0
2.227,24.375,0,0,0,0,0
2.228,24.063,0,0,0,0,0
2.229,23.75,0,0,0,0,0
2.23,23.438,0,0,0,0,0
2.231,23.75,0,0,0,0,0
2.232,24.063,0,0,0,0,0
2.233,24.375,0,0,0,0,0
2.234,24.375,0,0,0,0,0
2.235,25,0,0,0,0,0
2.236,24.688,0,0,0,0,0
2.237,24.375,0,0,0,0,0
2.238,25,0,0,0,0,0
2.239,24.375,0,0,0,0,0
2.24,24.688,0,0,0,0,0
2.241,25,0,0,0,0,0
2.242,24.375,0,0,0,0,0
2.243,24.375,0,0,0,0,0
2.244,24.375,0,0,0,0,0
2.245,24.375,0,0,0,0,0
2.246,25.313,0,0,0,0,0
2.247,26.25,0,0,0,1,0
2.248,25.313,0,0,0,0,0
2.249,25.625,0,0,0,0,0
2.25,25.938,0,0,0,0,0
2.251,26.25,0,0,0,0,0
2.252,26.25,0,0,0,0,0
2.253,26.25,0,0,0,0,0
2.254,25.938,0,0,0,0,0
2.255,25.625,0,0,0,0,0
2.256,25.313,0,0,0,0,0
2.257,25,0,0,0,0,0
2.258,25.313,0,0,0,0,0
2.259,25,0,0,0,0,0
2.26,24.688,0,0,0,0,0
2.261,23.75,0,0,0,0,0
2.262,24.375,0,0,0,0,0
2.263,23.75,0,0,0,0,0
2.264,23.125,0,0,0,0,0
2.265,23.125,0,0,0,0,0
2.266,23.125,0,0,0,0,0
2.267,23.125,0,0,0,0,0
2.268,23.125,0,0,0,0,0
2.269,23.125,0,0,0,0,0
2.27,22.813,0,0,0,0,0
2.271,21.875,0,0,0,0,0
2.272,22.188,0,0,0,0,0
2.273,21.875,0,0,0,0,0
2.274,22.5,0,0,0,0,0
2.275,22.5,0,0,0,0,0
2.276,21.563,0,0,0,0,0
2.277,21.25,0,0,0,0,0
2.278,20.625,0,0,0,0,0
2.279,20,0,0,0,0,0
2.28,20.313,0,0,0,0,0
2.281,20,0,0,0,0,0
2.282,19.688,0,0,0,0,0
2.283,19.375,0,0,0,0,0
2.284,18.125,0,0,0,0,0
2.285,16.875,0,0,0,0,0
2.286,16.25,0,0,0,0,0
2.287,15.625,0,0,0,0,0
2.288,15.625,0,0,0,0,0
2.289,15,0,0,0,0,0
2.29,15.625,0,0,0,0,0
2.291,15,0,0,0,0,0
2.292,14.688,0,0,0,0,0
2.293,14.375,0,0,0,0,0
2.294,14.375,0,0,0,0,0
2.295,14.375,0,0,0,0,0
2.296,13.438,0,0,0,0,0
2.297,12.5,0,0,0,0,0
2.298,12.5,0,0,0,0,0
2.299,11.875,0,0,0,0,0
2.3,12.5,0,0,0,0,0
2.301,12.5,0,0,0,0,0
2.302,11.25,0,0,0,0,0
2.303,10.625,0,0,0,0,0
2.304,9.6875,0,0,0,0,0
2.305,8.75,0,0,0,0,0
2.306,8.4375,0,0,0,0,0
2.307,8.125,0,0,0,0,0
2.308,8.75,0,0,0,0,0
2.309,8.125,0,0,0,0,0
2.31,7.5,0,0,0,0,0
2.311,7.5,0,0,0,0,0
2.312,7.5,0,0,0,0,0
2.313,6.875,0,0,0,0,0
2.314,7.5,0,0,0,0,0
2.315,7.5,0,0,0,0,0
2.316,6.5625,0,0,0,0,0
2.317,5.625,0,0,0,0,0
2.318,5.625,0,0,0,0,0
2.319,5.625,0,0,0,0,0
2.32,5.625,0,0,0,0,0
2.321,5.625,0,0,0,0,0
2.322,4.6875,0,0,0,0,0
2.323,4.375,0,0,0,0,0
2.324,3.4375,0,0,0,0,0
2.325,3.125,0,0,0,0,0
2.326,2.5,0,0,0,0,0
2.327,2.5,0,0,0,0,0
2.328,2.8125,0,0,0,0,0
2.329,2.5,0,0,0,0,0
2.33,2.5,0,0,0,0,0
2.331,2.5,0,0,0,0,0
2.332,2.5,0,0,0,0,0
2.333,2.5,0,0,0,0,0
2.334,1.875,0,0,0,0,0
2.335,1.875,0,0,0,0,0
2.336,1.5625,0,0,0,0,0
2.337,1.25,0,0,0,0,0
2.338,1.25,0,0,0,0,0
2.339,1.25,0,0,0,0,0
2.34,0.625,0,0,0,0,0
2.341,0.625,0,0,0,0,0
2.342,0.9375,0,0,0,0,0
2.343,1.25,0,0,0,0,0
2.344,0.625,0,0,0,0,0
2.345,0.625,0,0,0,0,0
2.346,0.625,0,0,0,0,0
2.347,0.625,0,0,0,0,0
2.348,0.9375,0,0,0,0,0
2.349,1.25,0,0,0,0,0
2.35,0.9375,0,0,0,0,0
2.351,0.625,0,0,0,0,0
2.352,0.625,0,0,0,0,0
2.353,0.625,0,0,0,0,0
2.354,0.3125,0,0,0,0,0
2.355,0,0,0,0,0,0
2.356,-0.9375,0,0,0,0,0
2.357,-0.625,0,0,0,0,0
2.358,-0.9375,0,0,0,0,0
2.359,-0.625,0,0,0,0,0
2.36,-0.625,0,0,0,0,0
2.361,-0.625,0,0,0,0,0
2.362,-0.625,0,0,0,0,0
2.363,0,0,0,0,0,0
2.364,-0.3125,0,0,0,0,0
2.365,0,0,0,0,0,0
2.366,-0.625,0,0,0,0,0
2.367,-0.625,0,0,0,0,0
2.368,-0.625,0,0,0,0,0
2.369,0,0,0,0,0,0
2.37,-0.625,0,0,0,0,0
2.371,0,0,0,0,0,0
2.372,-0.3125,0,0,0,0,0
2.373,-1.25,0,0,0,0,0
2.374,-1.25,0,0,0,0,1
2.375,-1.25,0,0,0,0,0
2.376,-0.9375,0,0,0,0,0
2.377,-0.625,0,0,0,0,0
2.378,-0.625,0,0,0,0,0
2.379,-0.625,0,0,0,0,0
2.38,-0.9375,0,0,0,0,0
2.381,-1.25,0,0,0,0,0
2.382,-1.5625,0,0,0,0,0
2.383,-1.25,0,0,0,0,0
2.384,-1.5625,0,0,0,0,0
2.385,-1.875,0,0,0,0,0
2.386,-1.25,0,0,0,0,0
2.387,-0.625,0,0,0,0,0
2.388,-1.25,0,0,0,0,0
2.389,-0.625,0,0,0,0,0
2.39,-0.9375,0,0,0,0,0
2.391,-1.25,0,0,0,0,0
2.392,-1.5625,0,0,0,0,0
2.393,-1.875,0,0,0,0,0
2.394,-1.875,0,0,0,0,0
2.395,-1.875,0,0,0,0,0
2.396,-1.875,0,0,0,0,0
2.397,-1.875,0,0,0,0,0
2.398,-1.875,0,0,0,0,0
2.399,-1.875,0,0,0,0,0
2.4,-1.25,0,0,0,0,0
2.401,-0.625,0,0,0,0,0
2.402,-0.625,0,0,0,0,0
2.403,-0.625,0,0,0,0,0
2.404,-0.3125,0,0,0,0,0
2.405,0,0,0,0,0,0
2.406,-0.625,0,0,0,0,0
2.407,0,0,0,0,0,0
2.408,-0.3125,0,0,0,0,0
2.409,-0.625,0,0,0,0,0
2.41,-0.9375,0,0,0,0,0
2.411,-1.25,0,0,0,0,0
2.412,-0.625,0,0,0,0,0
2.413,-0.625,0,0,0,0,0
2.414,-0.3125,0,0,0,0,0
2.415,-0.625,0,0,0,0,0
2.416,-0.625,0,0,0,0,0
2.417,-0.625,0,0,0,0,0
2.418,-0.625,0,0,0,0,0
2.419,-0.625,0,0,0,0,0
2.42,-0.625,0,0,0,0,0
2.421,-0.625,0,0,0,0,0
2.422,-0.625,0,0,0,0,0
2.423,-0.625,0,0,0,0,0
2.424,-0.625,0,0,0,0,0
2.425,-0.625,0,0,0,0,0
2.426,-0.625,0,0,0,0,0
2.427,-0.625,0,0,0,0,0
2.428,-0.3125,0,0,0,0,0
2.429,-0.625,0,0,0,0,0
2.43,-0.9375,0,0,0,0,0
2.431,-1.25,0,0,0,0,0
2.432,-0.625,0,0,0,0,0
2.433,-0.625,0,0,0,0,0
2.434,-0.9375,0,0,0,0,0
2.435,-0.625,0,0,0,0,0
2.436,-0.3125,0,0,0,0,0
2.437,-0.625,0,0,0,0,0
2.438,-0.9375,0,0,0,0,0
2.439,-1.25,0,0,0,0,0
2.44,-0.9375,0,0,0,0,0
2.441,-0.625,0,0,0,0,0
2.442,-0.625,0,0,0,0,0
2.443,-0.625,0,0,0,0,0
2.444,-0.625,0,0,0,0,0
2.445,-0.625,0,0,0,0,0
2.446,-0.625,0,0,0,0,0
2.447,-0.625,0,0,0,0,0
2.448,-0.3125,0,0,0,0,0
2.449,-0.625,0,0,0,0,0
2.45,-0.3125,0,0,0,0,0
2.451,-0.625,0,0,0,0,0
2.452,-0.3125,0,0,0,0,0
2.453,0,0,0,0,0,0
2.454,-0.625,0,0,0,0,0
2.455,-1.25,0,0,0,0,0
2.456,-0.3125,0,0,0,0,0
2.457,0,0,0,0,0,0
2.458,0,0,0,0,0,0
2.459,0,0,0,0,0,0
2.46,-0.625,0,0,0,0,0
2.461,0,0,0,0,0,0
2.462,-0.625,0,0,0,0,0
2.463,-0.625,0,0,0,0,0
2.464,-0.3125,0,0,0,0,0
2.465,-1.25,0,0,0,0,0
2.466,-1.25,0,0,0,0,0
2.467,-1.25,0,0,0,0,0
2.468,-0.9375,0,0,0,0,0
2.469,-0.625,0,0,0,0,0
2.47,-0.9375,0,0,0,0,0
2.471,-1.25,0,0,0,0,0
2.472,-1.25,0,0,0,0,0
2.473,-1.25,0,0,0,0,0
2.474,-1.25,0,0,0,0,0
2.475,-1.25,0,0,0,0,0
2.476,-1.25,0,0,0,0,0
2.477,-1.25,0,0,0,0,0
2.478,-0.9375,0,0,0,0,0
2.479,-1.25,0,0,0,0,0
2.48,-1.25,0,0,0,0,0
2.481,-1.875,0,0,0,0,0
2.482,-1.25,0,0,0,0,0
2.483,-1.25,0,0,0,0,0
2.484,-1.25,0,0,0,0,0
2.485,-1.25,0,0,0,0,0
2.486,-1.875,0,0,0,0,0
2.487,-1.25,0,0,0,0,0
2.488,-1.875,0,0,0,0,0
2.489,-1.875,0,0,0,0,0
2.49,-1.5625,0,0,0,0,0
2.491,-2.5,0,0,0,0,0
2.492,-2.5,0,0,0,0,0
2.493,-1.875,0,0,0,0,0
2.494,-2.1875,0,0,0,0,0
2.495,-1.875,0,0,0,0,0
2.496,-2.1875,0,0,0,0,0
2.497,-2.5,0,0,0,0,0
2.498,-2.5,0,0,0,0,0
2.499,-2.5,0,0,0,0,0
2.5,-1.5625,0,0,0,0,0
2.501,-1.25,0,0,0,0,0
2.502,-1.25,0,0,0,0,0
2.503,-1.25,0,0,0,0,0
2.504,-0.9375,0,0,0,0,0
2.505,-1.25,0,0,0,0,0
2.506,-1.25,0,0,0,0,0
2.507,-1.25,0,0,0,0,0
2.508,-1.5625,0,0,0,0,0
2.509,-1.875,0,0,0,0,0
2.51,-1.875,0,0,0,0,0
2.511,-1.875,0,0,0,0,0
2.512,-1.875,0,0,0,0,0
2.513,-1.875,0,0,0,0,0
2.514,-1.875,0,0,0,0,0
2.515,-1.875,0,0,0,0,0
2.516,-1.5625,0,0,0,0,0
2.517,-1.875,0,0,0,0,0
2.518,-2.5,0,0,0,0,0
2.519,-2.5,0,0,0,0,0
2.52,-2.5,0,0,0,0,0
2.521,-2.5,0,0,0,0,0
2.522,-2.5,0,0,0,0,0
2.523,-2.5,0,0,0,0,0
2.524,-2.8125,0,0,0,0,0
2.525,-3.125,0,0,0,0,0
2.526,-2.5,0,0,0,0,0
2.527,-1.875,0,0,0,0,0
2.528,-1.5625,0,0,0,0,0
2.529,-1.25,0,0,0,0,0
2.53,-1.25,0,0,0,0,0
2.531,-1.25,0,0,0,0,0
2.532,-1.25,0,0,0,0,0
2.533,-1.875,0,0,0,0,0
2.534,-1.5625,0,0,0,0,0
2.535,-1.875,0,0,0,0,0
2.536,-2.1875,0,0,0,0,0
2.537,-2.5,0,0,0,0,0
2.538,-2.5,0,0,0,0,0
2.539,-2.5,0,0,0,0,0
2.54,-2.1875,0,0,0,0,0
2.541,-1.875,0,0,0,0,0
2.542,-1.875,0,0,0,0,0
2.543,-1.875,0,0,0,0,0
2.544,-2.1875,0,0,0,0,0
2.545,-2.5,0,0,0,0,0
2.546,-2.1875,0,0,0,0,0
2.547,-1.875,0,0,0,0,0
2.548,-1.5625,0,0,0,0,0
2.549,-1.25,0,0,0,0,0
2.55,-1.5625,0,0,0,0,0
2.551,-1.875,0,0,0,0,0
2.552,-1.875,0,0,0,0,0
2.553,-1.875,0,0,0,0,0
2.554,-1.875,0,0,0,0,0
2.555,-1.875,0,0,0,0,0
2.556,-2.1875,0,0,0,0,0
2.557,-2.5,0,0,0,0,0
2.558,-2.8125,0,0,0,0,0
2.559,-3.125,0,0,0,0,0
2.56,-2.8125,0,0,0,0,0
2.561,-2.5,0,0,0,0,0
2.562,-2.8125,0,0,0,0,0
2.563,-3.125,0,0,0,0,0
2.564,-2.8125,0,0,0,0,0
2.565,-3.125,0,0,0,0,0
2.566,-2.5,0,0,0,0,0
2.567,-3.125,0,0,0,0,0
2.568,-2.8125,0,0,0,0,0
2.569,-2.5,0,0,0,0,0
2.57,-2.5,0,0,0,0,0
2.571,-1.875,0,0,0,0,0
2.572,-1.875,0,0,0,0,0
2.573,-2.5,0,0,0,0,0
2.574,-1.875,0,0,0,0,0
2.575,-1.875,0,0,0,0,0
2.576,-3.125,0,0,0,0,0
2.577,-3.125,0,0,0,0,0
2.578,-2.8125,0,0,0,0,0
2.579,-3.125,0,0,0,0,0
2.58,-3.125,0,0,0,0,0
2.581,-3.125,0,0,0,0,0
2.582,-3.4375,0,0,0,0,0
2.583,-3.125,0,0,0,0,0
2.584,-3.125,0,0,0,0,0
2.585,-3.75,0,0,0,0,0
2.586,-2.8125,0,0,0,0,0
2.587,-3.125,0,0,0,0,0
2.588,-3.4375,0,0,0,0,0
2.589,-3.125,0,0,0,0,0
2.59,-3.125,0,0,0,0,0
2.591,-3.125,0,0,0,0,0
2.592,-3.125,0,0,0,0,0
2.593,-3.125,0,0,0,0,0
2.594,-3.4375,0,0,0,0,0
2.595,-3.125,0,0,0,0,0
2.596,-2.8125,0,0,0,0,0
2.597,-3.125,0,0,0,0,0
2.598,-2.8125,0,0,0,0,0
2.599,-2.5,0,0,0,0,0
2.6,-3.125,0,0,0,0,0
2.601,-2.5,0,0,0,0,0
2.602,-2.5,0,0,0,0,0
2.603,-2.5,0,0,0,0,0
2.604,-2.5,0,0,0,0,0
2.605,-2.5,0,0,0,0,0
2.606,-2.5,0,0,0,0,0
2.607,-2.5,0,0,0,0,0
2.608,-1.875,0,0,0,0,0
2.609,-1.25,0,0,0,0,0
2.61,-2.5,0,0,0,0,0
2.611,-3.125,0,0,0,0,0
2.612,-3.125,0,0,0,0,0
2.613,-3.125,0,0,0,0,0
2.614,-3.125,0,0,0,0,0
2.615,-3.125,0,0,0,0,0
2.616,-3.125,0,0,0,0,0
2.617,-3.125,0,0,0,0,0
2.618,-2.8125,0,0,0,0,0
2.619,-2.5,0,0,0,0,0
2.62,-2.5,0,0,0,0,0
2.621,-2.5,0,0,0,0,0
2.622,-3.125,0,0,0,0,0
2.623,-3.125,0,0,0,0,0
2.624,-3.4375,0,0,0,0,0
2.625,-3.75,0,0,0,0,0
2.626,-3.4375,0,0,0,0,0
2.627,-3.75,0,0,0,0,0
2.628,-3.125,0,0,0,0,0
2.629,-3.125,0,0,0,0,0
2.63,-3.4375,0,0,0,0,0
2.631,-3.75,0,0,0,0,0
2.632,-3.75,0,0,0,0,0
2.633,-3.75,0,0,0,0,0
2.634,-3.4375,0,0,0,0,0
2.635,-3.75,0,0,0,0,0
2.636,-3.4375,0,0,0,0,0
2.637,-3.125,0,0,0,0,0
2.638,-3.4375,0,0,0,0,0
2.639,-3.125,0,0,0,0,0
2.64,-3.4375,0,0,0,0,0
2.641,-3.125,0,0,0,0,0
2.642,-3.75,0,0,0,0,0
2.643,-3.75,0,0,0,0,0
2.644,-4.0625,0,0,0,0,0
2.645,-4.375,0,0,0,0,0
2.646,-4.0625,0,0,0,0,0
2.647,-4.375,0,0,0,0,0
2.648,-3.4375,0,0,0,0,0
2.649,-3.125,0,0,0,0,0
2.65,-2.8125,0,0,0,0,0
2.651,-3.75,0,0,0,0,0
2.652,-3.125,0,0,0,0,0
2.653,-3.125,0,0,0,0,0
2.654,-3.125,0,0,0,0,0
2.655,-3.125,0,0,0,0,0
2.656,-3.125,0,0,0,0,0
2.657,-3.125,0,0,0,0,0
2.658,-3.125,0,0,0,0,0
2.659,-3.125,0,0,0,0,0
2.66,-2.5,0,0,0,0,0
2.661,-2.5,0,0,0,0,0
2.662,-2.5,0,0,0,0,0
2.663,-2.5,0,0,0,0,0
2.664,-3.125,0,0,0,0,0
2.665,-3.125,0,0,0,0,0
2.666,-2.5,0,0,0,0,0
2.667,-1.875,0,0,0,0,0
2.668,-1.875,0,0,0,0,0
2.669,-1.875,0,0,0,0,0
2.67,-1.5625,0,0,0,0,0
2.671,-1.25,0,0,0,0,0
2.672,-1.25,0,0,0,0,0
2.673,-0.625,0,0,0,0,0
2.674,-0.625,0,0,0,0,0
2.675,-0.625,0,0,0,0,0
2.676,-1.5625,0,0,0,0,0
2.677,-1.875,0,0,0,0,0
2.678,-1.875,0,0,0,0,0
2.679,-2.5,0,0,0,0,0
2.68,-2.1875,0,0,0,0,0
2.681,-1.875,0,0,0,0,0
2.682,-2.1875,0,0,0,0,0
2.683,-1.875,0,0,0,0,0
2.684,-1.875,0,0,0,0,0
2.685,-1.25,0,0,0,0,0
2.686,-1.5625,0,0,0,0,0
2.687,-1.25,0,0,0,0,0
2.688,-1.25,0,0,0,0,0
2.689,-0.625,0,0,0,0,0
2.69,-1.5625,0,0,0,0,0
2.691,-1.875,0,0,0,0,0
2.692,-1.5625,0,0,0,0,0
2.693,-1.875,0,0,0,0,0
2.694,-1.5625,0,0,0,0,0
2.695,-1.25,0,0,0,0,0
2.696,-1.5625,0,0,0,0,0
2.697,-1.875,0,0,0,0,0
2.698,-1.875,0,0,0,0,0
2.699,-1.875,0,0,0,0,0
2.7,-1.875,0,0,0,0,0
2.701,-1.25,0,0,0,0,0
2.702,-1.5625,0,0,0,0,0
2.703,-1.25,0,0,0,0,0
2.704,-0.9375,0,0,0,0,0
2.705,-1.25,0,0,0,0,0
2.706,-0.9375,0,0,0,0,0
2.707,-0.625,0,0,0,0,0
2.708,0.3125,0,0,0,0,0
2.709,0,0,0,0,0,0
2.71,-0.3125,0,0,0,0,0
2.711,-0.625,0,0,0,0,0
2.712,-0.9375,0,0,0,0,0
2.713,-1.25,0,0,0,0,0
2.714,-1.25,0,0,0,0,0
2.715,-1.25,0,0,0,0,0
2.716,-0.3125,0,0,0,0,0
2.717,-0.625,0,0,0,0,0
2.718,-0.3125,0,0,0,0,0
2.719,0,0,0,0,0,0
2.72,-1.25,0,0,0,0,0
2.721,-1.25,0,0,0,0,0
2.722,-1.5625,0,0,0,0,0
2.723,-1.875,0,0,0,0,0
2.724,-1.5625,0,0,0,0,0
2.725,-1.875,0,0,0,0,0
2.726,-2.1875,0,0,0,0,0
2.727,-1.875,0,0,0,0,0
2.728,-1.5625,0,0,0,0,0
2.729,-1.25,0,0,0,0,0
2.73,-1.5625,0,0,0,0,0
2.731,-1.875,0,0,0,0,0
2.732,-1.5625,0,0,0,0,0
2.733,-0.625,0,0,0,0,0
2.734,-0.625,0,0,0,0,0
2.735,-0.625,0,0,0,0,0
2.736,0,0,0,0,0,0
2.737,0,0,0,0,0,0
2.738,0,0,0,0,0,0
2.739,0,0,0,0,0,0
2.74,-0.3125,0,0,0,0,0
2.741,0,0,0,0,0,0
2.742,-0.625,0,0,0,0,0
2.743,-0.625,0,0,0,0,0
2.744,-0.9375,0,0,0,0,0
2.745,-0.625,0,0,0,0,0
2.746,-0.625,0,0,0,0,0
2.747,0.625,0,0,0,0,0
2.748,0.625,0,0,0,0,0
2.749,0.625,0,0,0,0,0
2.75,0.3125,0,0,0,0,0
2.751,0.625,0,0,0,0,0
2.752,0.625,0,0,0,0,0
2.753,0.625,0,0,0,0,0
2.754,0.625,0,0,0,0,0
2.755,0.625,0,0,0,0,0
2.756,0.3125,0,0,0,0,0
2.757,0,0,0,0,0,0
2.758,0,0,0,0,0,0
2.759,0.625,0,0,0,0,0
2.76,0.3125,0,0,0,0,0
2.761,0,0,0,0,0,0
2.762,0.3125,0,0,0,0,0
2.763,0.625,0,0,0,0,0
2.764,0.625,0,0,0,0,0
2.765,0.625,0,0,0,0,0
2.766,0.3125,0,0,0,0,0
2.767,0,0,0,0,0,0
2.768,0.3125,0,0,0,0,0
2.769,0.625,0,0,0,0,0
2.77,-0.3125,0,0,0,0,0
2.771,0,0,0,0,0,0
2.772,0,0,0,0,0,0
2.773,0,0,0,0,0,0
2.774,0.3125,0,0,0,0,0
2.775,0.625,0,0,0,0,0
2.776,0.3125,0,0,0,0,0
2.777,0.625,0,0,0,0,0
2.778,0.3125,0,0,0,0,0
2.779,0,0,0,0,0,0
2.78,0.3125,0,0,0,0,0
2.781,0.625,0,0,0,0,0
2.782,0.625,0,0,0,0,0
2.783,0.625,0,0,0,0,0
2.784,0.3125,0,0,0,0,0
2.785,0,0,0,0,0,0
2.786,0.625,0,0,0,0,0
2.787,0,0,0,0,0,0
2.788,0.625,0,0,0,0,0
2.789,0.625,0,0,0,0,0
2.79,0.625,0,0,0,0,0
2.791,0.625,0,0,0,0,0
2.792,0.625,0,0,0,0,0
2.793,0.625,0,0,0,0,0
2.794,0.625,0,0,0,0,0
2.795,0.625,0,0,0,0,0
2.796,0.9375,0,0,0,0,0
2.797,1.25,0,0,0,0,0
2.798,1.5625,0,0,0,0,0
2.799,1.875,0,0,0,0,0
2.8,1.875,0,0,0,0,0
2.801,1.875,0,0,0,0,0
2.802,1.875,0,0,0,0,0
2.803,1.875,0,0,0,0,0
2.804,1.25,0,0,0,0,0
2.805,1.25,0,0,0,0,0
2.806,1.5625,0,0,0,0,0
2.807,1.25,0,0,0,0,0
2.808,1.25,0,0,0,0,0
2.809,1.875,0,0,0,0,0
2.81,1.875,0,0,0,0,0
2.811,2.5,0,0,0,0,0
2.812,2.1875,0,0,0,0,0
2.813,2.5,0,0,0,0,0
2.814,2.5,0,0,0,0,0
2.815,2.5,0,0,0,0,0
2.816,2.8125,0,0,0,0,0
2.817,2.5,0,0,0,0,0
2.818,2.1875,0,0,0,0,0
2.819,1.875,0,0,0,0,0
2.82,2.1875,0,0,0,0,0
2.821,1.875,0,0,0,0,0
2.822,1.5625,0,0,0,0,0
2.823,1.875,0,0,0,0,0
2.824,2.1875,0,0,0,0,0
2.825,2.5,0,0,0,0,0
2.826,2.1875,0,0,0,0,0
2.827,1.875,0,0,0,0,0
2.828,1.875,0,0,0,0,0
2.829,1.875,0,0,0,0,0
2.83,2.5,0,0,0,0,0
2.831,2.5,0,0,0,0,0
2.832,2.8125,0,0,0,0,0
2.833,3.75,0,0,0,0,0
2.834,3.75,0,0,0,0,0
2.835,3.75,0,0,0,0,0
2.836,2.8125,0,0,0,0,0
2.837,2.5,0,0,0,0,0
2.838,2.8125,0,0,0,0,0
2.839,2.5,0,0,0,0,0
2.84,2.5,0,0,0,0,0
2.841,2.5,0,0,0,0,0
2.842,2.8125,0,0,0,0,0
2.843,3.125,0,0,0,0,0
2.844,2.8125,0,0,0,0,0
2.845,2.5,0,0,0,0,0
2.846,2.5,0,0,0,0,0
2.847,2.5,0,0,0,0,0
2.848,3.4375,0,0,0,0,0
2.849,3.125,0,0,0,0,0
2.85,3.125,0,0,0,0,0
2.851,3.125,0,0,0,0,0
2.852,2.5,0,0,0,0,0
2.853,2.5,0,0,0,0,0
2.854,2.5,0,0,0,0,0
2.855,2.5,0,0,0,0,0
2.856,2.5,0,0,0,0,0
2.857,1.875,0,0,0,0,0
2.858,1.5625,0,0,0,0,0
2.859,1.25,0,0,0,0,0
2.86,1.5625,0,0,0,0,0
2.861,1.25,0,0,0,0,0
2.862,0.9375,0,0,0,0,0
2.863,0.625,0,0,0,0,0
2.864,0.625,0,0,0,0,0
2.865,0.625,0,0,0,0,0
2.866,0.625,0,0,0,0,0
2.867,0.625,0,0,0,0,0
2.868,0.625,0,0,0,0,0
2.869,0.625,0,0,0,0,0
2.87,0.9375,0,0,0,0,0
2.871,1.25,0,0,0,0,0
2.872,1.25,0,0,0,0,0
2.873,1.25,0,0,0,0,0
2.874,0.9375,0,0,0,0,0
2.875,0.625,0,0,0,0,0
2.876,0.9375,0,0,0,0,0
2.877,1.25,0,0,0,0,0
2.878,1.25,0,0,0,0,0
2.879,1.25,0,0,0,0,0
2.88,1.25,0,0,0,0,0
2.881,1.25,0,0,0,0,0
2.882,1.25,0,0,0,0,0
2.883,1.25,0,0,0,0,0
2.884,1.25,0,0,0,0,0
2.885,0.625,0,0,0,0,0
2.886,0.625,0,0,0,0,0
2.887,0.625,0,0,0,0,0
2.888,0.625,0,0,0,0,0
2.889,1.25,0,0,0,0,0
2.89,1.25,0,0,0,0,0
2.891,0.625,0,0,0,0,0
2.892,1.25,0,0,0,0,0
2.893,0.625,0,0,0,0,0
2.894,0.625,0,0,0,0,0
2.895,0.625,0,0,0,0,0
2.896,0.9375,0,0,0,0,0
2.897,0,0,0,0,0,0
2.898,0.625,0,0,0,0,0
2.899,0.625,0,0,0,0,0
2.9,0.3125,0,0,0,0,0
2.901,0,0,0,0,0,0
2.902,0,0,0,0,0,0
2.903,0,0,0,0,0,0
2.904,0,0,0,0,0,0
2.905,0.625,0,0,0,0,0
2.906,0.9375,0,0,0,0,0
2.907,1.25,0,0,0,0,0
2.908,1.5625,0,0,0,0,0
2.909,1.875,0,0,0,0,0
2.91,2.1875,0,0,0,0,0
2.911,2.5,0,0,0,0,0
2.912,1.5625,0,0,0,0,0
2.913,1.875,0,0,0,0,0
2.914,2.1875,0,0,0,0,0
2.915,2.5,0,0,0,0,0
2.916,2.5,0,0,0,0,0
2.917,2.5,0,0,0,0,0
2.918,2.5,0,0,0,0,0
2.919,2.5,0,0,0,0,0
2.92,2.5,0,0,0,0,0
2.921,3.125,0,0,0,0,0
2.922,2.5,0,0,0,0,0
2.923,2.5,0,0,0,0,0
2.924,2.5,0,0,0,0,0
2.925,3.125,0,0,0,0,0
2.926,3.4375,0,0,0,0,0
2.927,3.75,0,0,0,0,0
2.928,3.4375,0,0,0,0,0
2.929,3.125,0,0,0,0,0
2.93,3.125,0,0,0,0,0
2.931,3.125,0,0,0,0,0
2.932,3.125,0,0,0,0,0
2.933,3.125,0,0,0,0,0
2.934,2.5,0,0,0,0,0
2.935,3.125,0,0,0,0,0
2.936,2.8125,0,0,0,0,0
2.937,2.5,0,0,0,0,0
2.938,2.8125,0,0,0,0,0
2.939,3.125,0,0,0,0,0
2.94,2.5,0,0,0,0,0
2.941,2.5,0,0,0,0,0
2.942,2.8125,0,0,0,0,0
2.943,2.5,0,0,0,0,0
2.944,2.5,0,0,0,0,0
2.945,2.5,0,0,0,0,0
2.946,2.8125,0,0,0,0,0
2.947,1.875,0,0,0,0,0
2.948,1.875,0,0,0,0,0
2.949,1.875,0,0,0,0,0
2.95,1.5625,0,0,0,0,0
2.951,1.25,0,0,0,0,0
2.952,1.25,0,0,0,0,0
2.953,1.25,0,0,0,0,0
2.954,1.5625,0,0,0,0,0
2.955,1.25,0,0,0,0,0
2.956,1.875,0,0,0,0,0
2.957,1.875,0,0,0,0,0
2.958,1.875,0,0,0,0,0
2.959,1.875,0,0,0,0,0
2.96,1.875,0,0,0,0,0
2.961,1.875,0,0,0,0,0
2.962,1.875,0,0,0,0,0
2.963,1.875,0,0,0,0,0
2.964,2.1875,0,0,0,0,0
2.965,2.5,0,0,0,0,0
2.966,2.5,0,0,0,0,0
2.967,2.5,0,0,0,0,0
2.968,2.5,0,0,0,0,0
2.969,2.5,0,0,0,0,0
2.97,1.5625,0,0,0,0,0
2.971,1.875,0,0,0,0,0
2.972,2.1875,0,0,0,0,0
2.973,2.5,0,0,0,0,0
2.974,2.1875,0,0,0,0,0
2.975,1.875,0,0,0,0,0
2.976,2.1875,0,0,0,0,0
2.977,1.875,0,0,0,0,0
2.978,2.1875,0,0,0,0,0
2.979,3.125,0,0,0,0,0
2.98,3.125,0,0,0,0,0
2.981,3.125,0,0,0,0,0
2.982,2.8125,0,0,0,0,0
2.983,2.5,0,0,0,0,0
2.984,2.1875,0,0,0,0,0
2.985,1.875,0,0,0,0,0
2.986,2.5,0,0,0,0,0
2.987,2.5,1,0,0,0,0
2.988,3.125,0,0,0,0,0
2.989,2.5,0,0,0,0,0
2.99,2.5,0,0,0,0,0
2.991,2.5,0,0,0,0,0
2.992,2.5,0,0,0,0,0
2.993,1.875,0,0,0,0,0
2.994,2.8125,0,0,0,0,0
2.995,2.5,0,0,0,0,0
2.996,2.5,0,0,0,0,0
2.997,1.875,0,0,0,0,0
2.998,2.5,0,0,0,0,0
2.999,1.875,0,0,0,0,0
3,1.875,0,0,0,0,0
3.001,1.875,0,0,0,0,0
3.002,0.9375,0,0,0,0,0
3.003,0.625,0,0,0,0,0
3.004,0,0,0,0,0,0
3.005,0,0,0,0,0,0
3.006,-0.625,0,0,0,0,0
3.007,-0.625,0,0,0,0,0
3.008,-0.625,0,0,0,0,0
3.009,-1.25,0,0,0,0,0
3.01,-1.25,0,0,0,0,0
3.011,-2.5,0,0,0,0,0
3.012,-2.1875,0,0,0,0,0
3.013,-2.5,0,0,0,0,0
3.014,-2.8125,0,0,0,0,0
3.015,-3.125,0,0,0,0,0
3.016,-5,0,0,0,0,0
3.017,-6.25,0,0,0,0,0
3.018,-7.8125,0,0,0,0,0
3.019,-8.75,0,0,0,0,0
3.02,-9.6875,0,0,0,0,0
3.021,-11.25,0,0,0,0,0
3.022,-13.438,0,0,0,0,0
3.023,-15,0,0,0,0,0
3.024,-16.563,0,0,0,0,0
3.025,-18.75,0,0,0,0,0
3.026,-20.313,0,0,0,0,0
3.027,-21.875,0,0,0,0,0
3.028,-22.813,0,0,0,0,0
3.029,-24.375,0,0,0,0,0
3.03,-25.938,0,0,0,0,0
3.031,-27.5,0,0,0,0,0
3.032,-28.75,0,0,0,0,0
3.033,-30,0,0,0,0,0
3.034,-30.625,0,0,0,0,0
3.035,-31.25,0,0,0,0,0
3.036,-31.563,0,0,0,0,0
3.037,-32.5,0,0,0,0,0
3.038,-32.5,0,0,0,0,0
3.039,-32.5,0,0,0,0,0
3.04,-33.125,0,0,0,0,0
3.041,-33.75,0,0,0,0,0
3.042,-35,0,0,0,0,0
3.043,-35.625,0,0,0,0,0
3.044,-36.875,0,0,0,0,0
3.045,-38.75,0,1,0,0,0
3.046,-38.75,0,0,0,0,0
3.047,-38.75,0,0,0,0,0
3.048,-39.688,0,0,0,0,0
3.049,-40,0,0,0,0,0
3.05,-39.688,0,0,0,0,0
3.051,-38.125,0,0,0,0,0
3.052,-35.938,0,0,0,0,0
3.053,-34.375,0,0,0,0,0
3.054,-33.125,0,0,0,0,0
3.055,-31.875,0,0,0,0,0
3.056,-31.563,0,0,0,0,0
3.057,-31.875,0,0,0,0,0
3.058,-30.625,0,0,0,0,0
3.059,-30.625,0,0,0,0,0
3.06,-30.313,0,0,0,0,0
3.061,-30,0,0,0,0,0
3.062,-29.375,0,0,0,0,0
3.063,-29.375,0,0,0,0,0
3.064,-29.063,0,0,0,0,0
3.065,-28.125,0,0,0,0,0
3.066,-26.875,0,0,0,0,0
3.067,-25.625,0,0,0,0,0
3.068,-24.063,0,0,0,0,0
3.069,-23.125,0,0,0,0,0
3.07,-22.813,0,0,0,0,0
3.071,-22.5,0,0,0,0,0
3.072,-20.938,0,0,0,0,0
3.073,-20,0,0,0,0,0
3.074,-19.375,0,0,0,0,0
3.075,-18.125,0,0,0,0,0
3.076,-16.563,0,0,0,0,0
3.077,-14.375,0,0,0,0,0
3.078,-11.25,0,0,0,0,0
3.079,-9.375,0,0,0,0,0
3.08,-8.125,0,0,0,0,0
3.081,-5.625,0,0,0,0,0
3.082,-4.375,0,0,0,0,0
3.083,-2.5,0,0,0,0,0
3.084,-2.5,0,0,0,0,0
3.085,-1.875,0,0,0,0,0
3.086,-0.625,0,0,0,0,0
3.087,0.625,0,0,0,0,0
3.088,1.875,0,0,0,0,0
3.089,2.5,0,0,0,0,0
3.09,3.75,0,0,0,0,0
3.091,3.75,0,0,0,0,0
3.092,4.375,0,0,0,0,0
3.093,5.625,0,0,0,0,0
3.094,5.9375,0,0,0,0,0
3.095,5.625,0,0,0,0,0
3.096,5.9375,0,0,0,0,0
3.097,5.625,0,0,0,0,0
3.098,5.9375,0,0,0,0,0
3.099,6.25,0,0,0,0,0
3.1,6.25,0,0,0,0,0
3.101,6.875,0,0,0,0,0
3.102,6.875,0,0,0,0,0
3.103,7.5,0,0,1,0,0
3.104,6.5625,0,0,0,0,0
3.105,6.875,0,0,0,0,0
3.106,7.1875,0,0,0,0,0
3.107,6.875,0,0,0,0,0
3.108,7.5,0,0,0,0,0
3.109,7.5,0,0,0,0,0
3.11,7.8125,0,0,0,0,0
3.111,8.125,0,0,0,0,0
3.112,8.125,0,0,0,0,0
3.113,8.75,0,0,0,0,0
3.114,8.4375,0,0,0,0,0
3.115,8.125,0,0,0,0,0
3.116,8.4375,0,0,0,0,0
3.117,8.125,0,0,0,0,0
3.118,8.4375,0,0,0,0,0
3.119,8.125,0,0,0,0,0
3.12,8.125,0,0,0,0,0
3.121,8.125,0,0,0,0,0
3.122,7.8125,0,0,0,0,0
3.123,8.125,0,0,0,0,0
3.124,8.4375,0,0,0,0,0
3.125,8.75,0,0,0,0,0
3.126,8.125,0,0,0,0,0
3.127,8.125,0,0,0,0,0
3.128,8.75,0,0,0,0,0
3.129,8.75,0,0,0,0,0
3.13,8.4375,0,0,0,0,0
3.131,8.125,0,0,0,0,0
3.132,9.0625,0,0,0,0,0
3.133,8.75,0,0,0,0,0
3.134,8.75,0,0,0,0,0
3.135,9.375,0,0,0,0,0
3.136,9.6875,0,0,0,0,0
3.137,9.375,0,0,0,0,0
3.138,9.6875,0,0,0,0,0
3.139,10,0,0,0,0,0
3.14,9.375,0,0,0,0,0
3.141,9.375,0,0,0,0,0
3.142,9.375,0,0,0,0,0
3.143,9.375,0,0,0,0,0
3.144,9.0625,0,0,0,0,0
3.145,8.75,0,0,0,0,0
3.146,8.4375,0,0,0,0,0
3.147,8.75,0,0,0,0,0
3.148,9.0625,0,0,0,0,0
3.149,8.75,0,0,0,0,0
3.15,8.125,0,0,0,0,0
3.151,7.5,0,0,0,0,0
3.152,8.4375,0,0,0,0,0
3.153,8.75,0,0,0,0,0
3.154,9.0625,0,0,0,0,0
3.155,9.375,0,0,0,0,0
3.156,10,0,0,0,0,0
3.157,10,0,0,0,0,0
3.158,9.375,0,0,0,0,0
3.159,9.375,0,0,0,0,0
3.16,9.375,0,0,0,0,0
3.161,9.375,0,0,0,0,0
3.162,9.375,0,0,0,0,0
3.163,9.375,0,0,0,0,0
3.164,9.0625,0,0,0,0,0
3.165,8.75,0,0,0,0,0
3.166,9.375,0,0,0,0,0
3.167,10,0,0,0,0,0
3.168,10.313,0,0,0,0,0
3.169,9.375,0,0,0,0,0
3.17,10,0,0,0,0,0
3.171,10,0,0,0,0,0
3.172,9.375,0,0,0,0,0
3.173,9.375,0,0,0,0,0
3.174,9.6875,0,0,0,0,0
3.175,10,0,0,0,0,0
3.176,10.625,0,0,0,0,0
3.177,10,0,0,0,0,0
3.178,10.313,0,0,0,0,0
3.179,10,0,0,0,0,0
3.18,10.938,0,0,0,0,0
3.181,10.625,0,0,0,0,0
3.182,11.25,0,0,0,0,0
3.183,10.625,0,0,0,0,0
3.184,10.938,0,0,0,0,0
3.185,11.25,0,0,0,0,0
3.186,10.625,0,0,0,0,0
3.187,10.625,0,0,0,0,0
3.188,10.625,0,0,0,0,0
3.189,10.625,0,0,0,0,0
3.19,10,0,0,0,0,0
3.191,10,0,0,0,0,0
3.192,10.625,0,0,0,0,0
3.193,10.625,0,0,0,0,0
3.194,10.938,0,0,0,0,0
3.195,10.625,0,0,0,0,0
3.196,10.938,0,0,0,0,0
3.197,11.25,0,0,0,0,0
3.198,11.25,0,0,0,0,0
3.199,11.25,0,0,0,0,0
3.2,10.625,0,0,0,0,0
3.201,11.25,0,0,0,0,0
3.202,10.938,0,0,0,0,0
3.203,10.625,0,0,0,0,0
3.204,10.313,0,0,0,0,0
3.205,10,0,0,0,0,0
3.206,10.313,0,0,0,0,0
3.207,10.625,0,0,0,0,0
3.208,10.313,0,0,0,0,0
3.209,10,0,0,0,0,0
3.21,10.938,0,0,0,0,0
3.211,10.625,0,0,0,0,0
3.212,10.313,0,0,0,0,0
3.213,10,0,0,0,0,0
3.214,10.313,0,0,0,0,0
3.215,10,0,0,0,0,0
3.216,10,0,0,0,0,0
3.217,10,0,0,0,0,0
3.218,10,0,0,0,0,0
3.219,10,0,0,0,0,0
3.22,11.25,0,0,0,0,0
3.221,11.25,0,0,0,0,0
3.222,10.938,0,0,0,0,0
3.223,11.25,0,0,0,0,0
3.224,10.938,0,0,0,0,0
3.225,10.625,0,0,0,0,0
3.226,11.875,0,0,0,0,0
3.227,12.5,0,0,0,0,0
3.228,12.813,0,0,0,0,0
3.229,13.125,0,0,0,0,0
3.23,13.438,0,0,0,0,0
3.231,13.75,0,0,0,0,0
3.232,13.75,0,0,0,0,0
3.233,13.75,0,0,0,0,0
3.234,13.438,0,0,0,0,0
3.235,13.125,0,0,0,0,0
3.236,13.438,0,0,0,0,0
3.237,13.125,0,0,0,0,0
3.238,13.125,0,0,0,0,0
3.239,13.125,0,0,0,0,0
3.24,13.125,0,0,0,0,0
3.241,13.75,0,0,0,0,0
3.242,13.438,0,0,0,0,0
3.243,13.125,0,0,0,0,0
3.244,13.125,0,0,0,0,0
3.245,13.125,0,0,0,0,0
3.246,13.125,0,0,0,0,0
3.247,13.125,0,0,0,0,0
3.248,13.75,0,0,0,0,0
3.249,13.75,0,0,0,0,0
3.25,13.438,0,0,0,0,0
3.251,13.125,0,0,0,0,0
3.252,13.125,0,0,0,0,0
3.253,13.125,0,0,0,0,0
3.254,12.813,0,0,0,0,0
3.255,13.125,0,0,0,0,0
3.256,13.438,0,0,0,0,0
3.257,13.75,0,0,0,0,0
3.258,13.75,0,0,0,0,0
3.259,13.75,0,0,0,0,0
3.26,14.688,0,0,0,0,0
3.261,15,0,0,0,0,0
3.262,15.313,0,0,0,0,0
3.263,15.625,0,0,0,0,0
3.264,15,0,0,0,0,0
3.265,15,0,0,0,0,0
3.266,15.313,0,0,0,0,0
3.267,15.625,0,0,0,0,0
3.268,15.938,0,0,0,0,0
3.269,16.25,0,0,0,0,0
3.27,15.625,0,0,0,0,0
3.271,15.625,0,0,0,0,0
3.272,16.25,0,0,0,0,0
3.273,15.625,0,0,0,0,0
3.274,16.563,0,0,0,0,0
3.275,16.875,0,0,0,0,0
3.276,16.25,0,0,0,0,0
3.277,16.25,0,0,0,0,0
3.278,16.875,0,0,0,0,0
3.279,16.875,0,0,0,0,0
3.28,17.5,0,0,0,0,0
3.281,18.125,0,0,0,0,0
3.282,17.5,0,0,0,0,0
3.283,17.5,0,0,0,0,0
3.284,16.875,0,0,0,0,0
3.285,16.875,0,0,0,0,0
3.286,17.5,0,0,0,0,0
3.287,18.125,0,0,0,0,0
3.288,18.438,0,0,0,0,0
3.289,18.75,0,0,0,0,0
3.29,19.375,0,0,0,0,0
3.291,19.375,0,0,0,0,0
3.292,19.063,0,0,0,0,0
3.293,18.75,0,0,0,0,0
3.294,19.375,0,0,0,0,0
3.295,19.375,0,0,0,0,0
3.296,20,0,0,0,0,0
3.297,19.375,0,0,0,0,0
3.298,20,0,0,0,0,0
3.299,20,0,0,0,0,0
3.3,20.938,0,0,0,0,0
3.301,21.25,0,0,0,0,0
3.302,21.25,0,0,0,0,0
3.303,21.875,0,0,0,0,0
3.304,21.563,0,0,0,0,0
3.305,21.875,0,0,0,0,0
3.306,22.188,0,0,0,0,0
3.307,22.5,0,0,0,0,0
3.308,22.188,0,0,0,0,0
3.309,22.5,0,0,0,0,0
3.31,22.813,0,0,0,0,0
3.311,23.125,0,0,0,0,0
3.312,23.75,0,0,0,0,0
3.313,23.75,0,0,0,0,0
3.314,24.063,0,0,0,0,0
3.315,24.375,0,0,0,0,0
3.316,24.688,0,0,0,0,0
3.317,24.375,0,0,0,0,0
3.318,24.375,0,0,0,0,0
3.319,24.375,0,0,0,0,0
3.32,24.375,0,0,0,0,0
3.321,24.375,0,0,0,0,0
3.322,25,0,0,0,0,0
3.323,25,0,0,0,0,0
3.324,25,0,0,0,0,0
3.325,25,0,0,0,0,0
3.326,25.313,0,0,0,0,0
3.327,25,0,0,0,0,0
3.328,25.625,0,0,0,0,0
3.329,26.875,0,0,0,0,0
3.33,25.938,0,0,0,0,0
3.331,25.625,0,0,0,0,0
3.332,25.625,0,0,0,0,0
3.333,25.625,0,0,0,0,0
3.334,25.938,0,0,0,0,0
3.335,25.625,0,0,0,0,0
3.336,25.625,0,0,0,1,0
3.337,25.625,0,0,0,0,0
3.338,25.625,0,0,0,0,0
3.339,25,0,0,0,0,0
3.34,25.938,0,0,0,0,0
3.341,26.25,0,0,0,0,0
3.342,25.938,0,0,0,0,0
3.343,25.625,0,0,0,0,0
3.344,25.625,0,0,0,0,0
3.345,25.625,0,0,0,0,0
3.346,25.938,0,0,0,0,0
3.347,26.25,0,0,0,0,0
3.348,26.25,0,0,0,0,0
3.349,26.25,0,0,0,0,0
3.35,25.938,0,0,0,0,0
3.351,26.25,0,0,0,0,0
3.352,25.625,0,0,0,0,0
3.353,26.25,0,0,0,0,0
3.354,25.938,0,0,0,0,0
3.355,26.25,0,0,0,0,0
3.356,26.563,0,0,0,0,0
3.357,25.625,0,0,0,0,0
3.358,24.688,0,0,0,0,0
3.359,24.375,0,0,0,0,0
3.36,24.375,0,0,0,0,0
3.361,24.375,0,0,0,0,0
3.362,23.438,0,0,0,0,0
3.363,23.125,0,0,0,0,0
3.364,22.188,0,0,0,0,0
3.365,21.875,0,0,0,0,0
3.366,21.875,0,0,0,0,0
3.367,21.875,0,0,0,0,0
3.368,21.875,0,0,0,0,0
3.369,21.25,0,0,0,0,0
3.37,20.313,0,0,0,0,0
3.371,20,0,0,0,0,0
3.372,19.688,0,0,0,0,0
3.373,20,0,0,0,0,0
3.374,20.313,0,0,0,0,0
3.375,20,0,0,0,0,0
3.376,19.063,0,0,0,0,0
3.377,18.125,0,0,0,0,0
3.378,17.813,0,0,0,0,0
3.379,18.125,0,0,0,0,0
3.38,17.188,0,0,0,0,0
3.381,17.5,0,0,0,0,0
3.382,17.188,0,0,0,0,0
3.383,16.875,0,0,0,0,0
3.384,15.313,0,0,0,0,0
3.385,14.375,0,0,0,0,0
3.386,14.688,0,0,0,0,0
3.387,14.375,0,0,0,0,0
3.388,13.75,0,0,0,0,0
3.389,13.75,0,0,0,0,0
3.39,13.125,0,0,0,0,0
3.391,13.125,0,0,0,0,0
3.392,12.5,0,0,0,0,0
3.393,11.875,0,0,0,0,0
3.394,11.875,0,0,0,0,0
3.395,11.25,0,0,0,0,0
3.396,10.313,0,0,0,0,0
3.397,9.375,0,0,0,0,0
3.398,9.0625,0,0,0,0,0
3.399,10,0,0,0,0,0
3.4,9.375,0,0,0,0,0
3.401,8.75,0,0,0,0,0
3.402,8.75,0,0,0,0,0
3.403,8.75,0,0,0,0,0
3.404,7.8125,0,0,0,0,0
3.405,7.5,0,0,0,0,0
3.406,6.875,0,0,0,0,0
3.407,6.875,0,0,0,0,0
3.408,6.875,0,0,0,0,0
3.409,6.25,0,0,0,0,0
3.41,5.3125,0,0,0,0,0
3.411,5,0,0,0,0,0
3.412,5.3125,0,0,0,0,0
3.413,5,0,0,0,0,0
3.414,5.3125,0,0,0,0,0
3.415,5,0,0,0,0,0
3.416,4.6875,0,0,0,0,0
3.417,3.75,0,0,0,0,0
3.418,3.4375,0,0,0,0,0
3.419,3.125,0,0,0,0,0
3.42,2.8125,0,0,0,0,0
3.421,3.125,0,0,0,0,0
3.422,2.5,0,0,0,0,0
3.423,1.875,0,0,0,0,0
3.424,2.1875,0,0,0,0,0
3.425,1.875,0,0,0,0,0
3.426,2.1875,0,0,0,0,0
3.427,2.5,0,0,0,0,0
3.428,2.1875,0,0,0,0,0
3.429,1.875,0,0,0,0,0
3.43,2.1875,0,0,0,0,0
3.431,1.875,0,0,0,0,0
3.432,1.5625,0,0,0,0,0
3.433,1.25,0,0,0,0,0
3.434,1.25,0,0,0,0,0
3.435,0.625,0,0,0,0,0
3.436,0.3125,0,0,0,0,0
3.437,0,0,0,0,0,0
3.438,0,0,0,0,0,0
3.439,0,0,0,0,0,0
3.44,0,0,0,0,0,0
3.441,0,0,0,0,0,0
3.442,-0.3125,0,0,0,0,0
3.443,-0.625,0,0,0,0,0
3.444,-0.625,0,0,0,0,0
3.445,-0.625,0,0,0,0,0
3.446,0,0,0,0,0,0
3.447,0,0,0,0,0,0
3.448,0.3125,0,0,0,0,0
3.449,-0.625,0,0,0,0,0
3.45,-0.625,0,0,0,0,0
3.451,-0.625,0,0,0,0,0
3.452,-0.3125,0,0,0,0,0
3.453,0,0,0,0,0,0
3.454,0.9375,0,0,0,0,0
3.455,0.625,0,0,0,0,0
3.456,0.625,0,0,0,0,0
3.457,0,0,0,0,0,0
3.458,-0.625,0,0,0,0,0
3.459,-1.25,0,0,0,0,0
3.46,-0.625,0,0,0,0,0
3.461,-1.25,0,0,0,0,0
3.462,-1.25,0,0,0,0,0
3.463,-1.875,0,0,0,0,0
3.464,-2.1875,0,0,0,0,0
3.465,-1.875,0,0,0,0,0
3.466,-1.875,0,0,0,0,0
3.467,-1.875,0,0,0,0,0
3.468,-1.5625,0,0,0,0,1
3.469,-1.25,0,0,0,0,0
3.47,-1.25,0,0,0,0,0
3.471,-1.25,0,0,0,0,0
3.472,-1.5625,0,0,0,0,0
3.473,-1.875,0,0,0,0,0
3.474,-0.9375,0,0,0,0,0
3.475,-0.625,0,0,0,0,0
3.476,-0.9375,0,0,0,0,0
3.477,-1.25,0,0,0,0,0
3.478,-0.9375,0,0,0,0,0
3.479,-1.25,0,0,0,0,0
3.48,-0.9375,0,0,0,0,0
3.481,-1.25,0,0,0,0,0
3.482,-0.9375,0,0,0,0,0
3.483,-0.625,0,0,0,0,0
3.484,-0.9375,0,0,0,0,0
3.485,-1.25,0,0,0,0,0
3.486,-0.9375,0,0,0,0,0
3.487,-0.625,0,0,0,0,0
3.488,-0.3125,0,0,0,0,0
3.489,0,0,0,0,0,0
3.49,0,0,0,0,0,0
3.491,0,0,0,0,0,0
3.492,0.3125,0,0,0,0,0
3.493,0.625,0,0,0,0,0
3.494,0.3125,0,0,0,0,0
3.495,0,0,0,0,0,0
3.496,-0.625,0,0,0,0,0
3.497,-1.875,0,0,0,0,0
3.498,-1.5625,0,0,0,0,0
3.499,-1.875,0,0,0,0,0
3.5,-1.25,0,0,0,0,0
3.501,-0.625,0,0,0,0,0
3.502,-0.625,0,0,0,0,0
3.503,-0.625,0,0,0,0,0
3.504,-1.25,0,0,0,0,0
3.505,-0.625,0,0,0,0,0
3.506,-0.9375,0,0,0,0,0
3.507,-1.25,0,0,0,0,0
3.508,-1.25,0,0,0,0,0
3.509,-1.25,0,0,0,0,0
3.51,-0.9375,0,0,0,0,0
3.511,-0.625,0,0,0,0,0
3.512,-0.9375,0,0,0,0,0
3.513,-1.25,0,0,0,0,0
3.514,-0.9375,0,0,0,0,0
3.515,-0.625,0,0,0,0,0
3.516,-0.9375,0,0,0,0,0
3.517,-1.25,0,0,0,0,0
3.518,-0.9375,0,0,0,0,0
3.519,-0.625,0,0,0,0,0
3.52,-1.25,0,0,0,0,0
3.521,-1.25,0,0,0,0,0
3.522,-1.5625,0,0,0,0,0
3.523,-1.25,0,0,0,0,0
3.524,-0.9375,0,0,0,0,0
3.525,-1.25,0,0,0,0,0
3.526,-1.25,0,0,0,0,0
3.527,-0.625,0,0,0,0,0
3.528,-0.625,0,0,0,0,0
3.529,-0.625,0,0,0,0,0
3.53,-0.625,0,0,0,0,0
3.531,-0.625,0,0,0,0,0
3.532,-0.625,0,0,0,0,0
3.533,-0.625,0,0,0,0,0
3.534,-0.3125,0,0,0,0,0
3.535,0,0,0,0,0,0
3.536,0,0,0,0,0,0
3.537,0,0,0,0,0,0
3.538,-0.3125,0,0,0,0,0
3.539,0,0,0,0,0,0
3.54,0.3125,0,0,0,0,0
3.541,0.625,0,0,0,0,0
3.542,0.3125,0,0,0,0,0
3.543,0.625,0,0,0,0,0
3.544,0.3125,0,0,0,0,0
3.545,0,0,0,0,0,0
3.546,-0.3125,0,0,0,0,0
3.547,0,0,0,0,0,0
3.548,-0.3125,0,0,0,0,0
3.549,-0.625,0,0,0,0,0
3.55,-0.3125,0,0,0,0,0
3.551,-0.625,0,0,0,0,0
3.552,0,0,0,0,0,0
3.553,-0.625,0,0,0,0,0
3.554,-0.625,0,0,0,0,0
3.555,0,0,0,0,0,0
3.556,-0.9375,0,0,0,0,0
3.557,-1.25,0,0,0,0,0
3.558,-1.25,0,0,0,0,0
3.559,-1.25,0,0,0,0,0
3.56,-1.25,0,0,0,0,0
3.561,-1.25,0,0,0,0,0
3.562,-1.25,0,0,0,0,0
3.563,-1.25,0,0,0,0,0
3.564,-1.25,0,0,0,0,0
3.565,-1.25,0,0,0,0,0
3.566,-1.5625,0,0,0,0,0
3.567,-1.875,0,0,0,0,0
3.568,-2.1875,0,0,0,0,0
3.569,-1.875,0,0,0,0,0
3.57,-1.875,0,0,0,0,0
3.571,-1.875,0,0,0,0,0
3.572,-2.1875,0,0,0,0,0
3.573,-1.25,0,0,0,0,0
3.574,-0.9375,0,0,0,0,0
3.575,-0.625,0,0,0,0,0
3.576,-0.3125,0,0,0,0,0
3.577,-0.625,0,0,0,0,0
3.578,0.3125,0,0,0,0,0
3.579,0,0,0,0,0,0
3.58,0,0,0,0,0,0
3.581,0.625,0,0,0,0,0
3.582,-0.625,0,0,0,0,0
3.583,-1.25,0,0,0,0,0
3.584,-0.9375,0,0,0,0,0
3.585,-1.875,0,0,0,0,0
3.586,-1.875,0,0,0,0,0
3.587,-1.875,0,0,0,0,0
3.588,-1.875,0,0,0,0,0
3.589,-1.875,0,0,0,0,0
3.59,-2.1875,0,0,0,0,0
3.591,-1.875,0,0,0,0,0
3.592,-1.875,0,0,0,0,0
3.593,-1.875,0,0,0,0,0
3.594,-1.5625,0,0,0,0,0
3.595,-1.25,0,0,0,0,0
3.596,-1.875,0,0,0,0,0
3.597,-1.875,0,0,0,0,0
3.598,-1.875,0,0,0,0,0
3.599,-1.875,0,0,0,0,0
3.6,-1.25,0,0,0,0,0
3.601,-0.625,0,0,0,0,0
3.602,-0.625,0,0,0,0,0
3.603,-0.625,0,0,0,0,0
3.604,-0.625,0,0,0,0,0
3.605,-0.625,0,0,0,0,0
3.606,-0.9375,0,0,0,0,0
3.607,-0.625,0,0,0,0,0
3.608,-0.625,0,0,0,0,0
3.609,-1.25,0,0,0,0,0
3.61,-0.9375,0,0,0,0,0
3.611,-0.625,0,0,0,0,0
3.612,-0.625,0,0,0,0,0
3.613,-0.625,0,0,0,0,0
3.614,-0.9375,0,0,0,0,0
3.615,-1.25,0,0,0,0,0
3.616,-1.5625,0,0,0,0,0
3.617,-1.875,0,0,0,0,0
3.618,-1.875,0,0,0,0,0
3.619,-1.875,0,0,0,0,0
3.62,-1.875,0,0,0,0,0
3.621,-1.875,0,0,0,0,0
3.622,-1.875,0,0,0,0,0
3.623,-1.875,0,0,0,0,0
3.624,-2.8125,0,0,0,0,0
3.625,-2.5,0,0,0,0,0
3.626,-2.1875,0,0,0,0,0
3.627,-1.875,0,0,0,0,0
3.628,-2.1875,0,0,0,0,0
3.629,-2.5,0,0,0,0,0
3.63,-2.5,0,0,0,0,0
3.631,-2.5,0,0,0,0,0
3.632,-2.1875,0,0,0,0,0
3.633,-1.875,0,0,0,0,0
3.634,-1.875,0,0,0,0,0
3.635,-1.875,0,0,0,0,0
3.636,-1.5625,0,0,0,0,0
3.637,-1.25,0,0,0,0,0
3.638,-1.5625,0,0,0,0,0
3.639,-1.875,0,0,0,0,0
3.64,-1.875,0,0,0,0,0
3.641,-1.875,0,0,0,0,0
3.642,-2.1875,0,0,0,0,0
3.643,-2.5,0,0,0,0,0
3.644,-2.5,0,0,0,0,0
3.645,-2.5,0,0,0,0,0
3.646,-2.5,0,0,0,0,0
3.647,-2.5,0,0,0,0,0
3.648,-1.875,0,0,0,0,0
3.649,-1.25,0,0,0,0,0
3.65,-1.5625,0,0,0,0,0
3.651,-1.875,0,0,0,0,0
3.652,-1.875,0,0,0,0,0
3.653,-1.875,0,0,0,0,0
3.654,-1.25,0,0,0,0,0
3.655,-0.625,0,0,0,0,0
3.656,-1.5625,0,0,0,0,0
3.657,-1.25,0,0,0,0,0
3.658,-2.1875,0,0,0,0,0
3.659,-2.5,0,0,0,0,0
3.66,-2.8125,0,0,0,0,0
3.661,-3.125,0,0,0,0,0
3.662,-2.5,0,0,0,0,0
3.663,-2.5,0,0,0,0,0
3.664,-3.4375,0,0,0,0,0
3.665,-3.125,0,0,0,0,0
3.666,-2.8125,0,0,0,0,0
3.667,-3.125,0,0,0,0,0
3.668,-2.5,0,0,0,0,0
3.669,-2.5,0,0,0,0,0
3.67,-3.125,0,0,0,0,0
3.671,-3.125,0,0,0,0,0
3.672,-3.125,0,0,0,0,0
3.673,-3.125,0,0,0,0,0
3.674,-2.1875,0,0,0,0,0
3.675,-1.875,0,0,0,0,0
3.676,-2.5,0,0,0,0,0
3.677,-1.875,0,0,0,0,0
3.678,-2.1875,0,0,0,0,0
3.679,-1.875,0,0,0,0,0
3.68,-1.5625,0,0,0,0,0
3.681,-1.875,0,0,0,0,0
3.682,-1.875,0,0,0,0,0
3.683,-1.875,0,0,0,0,0
3.684,-1.25,0,0,0,0,0
3.685,-1.25,0,0,0,0,0
3.686,-1.25,0,0,0,0,0
3.687,-0.625,0,0,0,0,0
3.688,-0.625,0,0,0,0,0
3.689,-0.625,0,0,0,0,0
3.69,-0.9375,0,0,0,0,0
3.691,-1.875,0,0,0,0,0
3.692,-1.25,0,0,0,0,0
3.693,-1.25,0,0,0,0,0
3.694,-1.25,0,0,0,0,0
3.695,-1.25,0,0,0,0,0
3.696,-1.25,0,0,0,0,0
3.697,-1.25,0,0,0,0,0
3.698,-1.875,0,0,0,0,0
3.699,-2.5,0,0,0,0,0
3.7,-2.1875,0,0,0,0,0
3.701,-2.5,0,0,0,0,0
3.702,-2.5,0,0,0,0,0
3.703,-2.5,0,0,0,0,0
3.704,-2.1875,0,0,0,0,0
3.705,-1.875,0,0,0,0,0
3.706,-2.1875,0,0,0,0,0
3.707,-2.5,0,0,0,0,0
3.708,-2.5,0,0,0,0,0
3.709,-2.5,0,0,0,0,0
3.71,-2.5,0,0,0,0,0
3.711,-2.5,0,0,0,0,0
3.712,-2.1875,0,0,0,0,0
3.713,-2.5,0,0,0,0,0
3.714,-2.5,0,0,0,0,0
3.715,-2.5,0,0,0,0,0
3.716,-2.8125,0,0,0,0,0
3.717,-2.5,0,0,0,0,0
3.718,-2.1875,0,0,0,0,0
3.719,-1.875,0,0,0,0,0
3.72,-2.8125,0,0,0,0,0
3.721,-3.125,0,0,0,0,0
3.722,-2.8125,0,0,0,0,0
3.723,-2.5,0,0,0,0,0
3.724,-2.8125,0,0,0,0,0
3.725,-2.5,0,0,0,0,0
3.726,-2.1875,0,0,0,0,0
3.727,-1.875,0,0,0,0,0
3.728,-2.1875,0,0,0,0,0
3.729,-2.5,0,0,0,0,0
3.73,-1.875,0,0,0,0,0
3.731,-2.5,0,0,0,0,0
3.732,-1.875,0,0,0,0,0
3.733,-1.875,0,0,0,0,0
3.734,-2.1875,0,0,0,0,0
3.735,-2.5,0,0,0,0,0
3.736,-2.5,0,0,0,0,0
3.737,-1.875,0,0,0,0,0
3.738,-1.875,0,0,0,0,0
3.739,-1.875,0,0,0,0,0
3.74,-2.1875,0,0,0,0,0
3.741,-1.25,0,0,0,0,0
3.742,-1.5625,0,0,0,0,0
3.743,-1.25,0,0,0,0,0
3.744,-1.5625,0,0,0,0,0
3.745,-1.875,0,0,0,0,0
3.746,-1.5625,0,0,0,0,0
3.747,-1.25,0,0,0,0,0
3.748,-0.625,0,0,0,0,0
3.749,-1.25,0,0,0,0,0
3.75,-1.25,0,0,0,0,0
3.751,-1.25,0,0,0,0,0
3.752,-2.5,0,0,0,0,0
3.753,-3.125,0,0,0,0,0
3.754,-3.4375,0,0,0,0,0
3.755,-3.125,0,0,0,0,0
3.756,-3.75,0,0,0,0,0
3.757,-3.75,0,0,0,0,0
3.758,-4.0625,0,0,0,0,0
3.759,-4.375,0,0,0,0,0
3.76,-4.0625,0,0,0,0,0
3.761,-3.75,0,0,0,0,0
3.762,-3.75,0,0,0,0,0
3.763,-3.125,0,0,0,0,0
3.764,-3.4375,0,0,0,0,0
3.765,-3.125,0,0,0,0,0
3.766,-3.125,0,0,0,0,0
3.767,-3.75,0,0,0,0,0
3.768,-3.125,0,0,0,0,0
3.769,-3.125,0,0,0,0,0
3.77,-3.4375,0,0,0,0,0
3.771,-3.75,0,0,0,0,0
3.772,-4.0625,0,0,0,0,0
3.773,-3.75,0,0,0,0,0
3.774,-3.125,0,0,0,0,0
3.775,-3.125,0,0,0,0,0
3.776,-3.125,0,0,0,0,0
3.777,-3.125,0,0,0,0,0
3.778,-2.8125,0,0,0,0,0
3.779,-2.5,0,0,0,0,0
3.78,-1.875,0,0,0,0,0
3.781,-1.875,0,0,0,0,0
3.782,-1.5625,0,0,0,0,0
3.783,-1.25,0,0,0,0,0
3.784,-2.1875,0,0,0,0,0
3.785,-2.5,0,0,0,0,0
3.786,-3.125,0,0,0,0,0
3.787,-3.75,0,0,0,0,0
3.788,-2.8125,0,0,0,0,0
3.789,-3.125,0,0,0,0,0
3.79,-3.125,0,0,0,0,0
3.791,-3.125,0,0,0,0,0
3.792,-2.5,0,0,0,0,0
3.793,-3.125,0,0,0,0,0
3.794,-2.1875,0,0,0,0,0
3.795,-1.875,0,0,0,0,0
3.796,-1.5625,0,0,0,0,0
3.797,-1.875,0,0,0,0,0
3.798,-1.875,0,0,0,0,0
3.799,-1.875,0,0,0,0,0
3.8,-2.1875,0,0,0,0,0
3.801,-2.5,0,0,0,0,0
3.802,-2.5,0,0,0,0,0
3.803,-2.5,0,0,0,0,0
3.804,-2.8125,0,0,0,0,0
3.805,-3.125,0,0,0,0,0
3.806,-2.1875,0,0,0,0,0
3.807,-1.875,0,0,0,0,0
3.808,-1.875,0,0,0,0,0
3.809,-1.875,0,0,0,0,0
3.81,-1.875,0,0,0,0,0
3.811,-1.875,0,0,0,0,0
3.812,-1.875,0,0,0,0,0
3.813,-1.875,0,0,0,0,0
3.814,-1.25,0,0,0,0,0
3.815,-0.625,0,0,0,0,0
3.816,-0.625,0,0,0,0,0
3.817,-1.25,0,0,0,0,0
3.818,-1.25,0,0,0,0,0
3.819,-1.875,0,0,0,0,0
3.82,-1.5625,0,0,0,0,0
3.821,-1.25,0,0,0,0,0
3.822,-0.9375,0,0,0,0,0
3.823,-1.25,0,0,0,0,0
3.824,-1.5625,0,0,0,0,0
3.825,-1.875,0,0,0,0,0
3.826,-1.875,0,0,0,0,0
3.827,-1.875,0,0,0,0,0
3.828,-1.875,0,0,0,0,0
3.829,-1.875,0,0,0,0,0
3.83,-2.1875,0,0,0,0,0
3.831,-2.5,0,0,0,0,0
3.832,-2.5,0,0,0,0,0
3.833,-1.875,0,0,0,0,0
3.834,-3.125,0,0,0,0,0
3.835,-3.125,0,0,0,0,0
3.836,-2.8125,0,0,0,0,0
3.837,-2.5,0,0,0,0,0
3.838,-2.5,0,0,0,0,0
3.839,-2.5,0,0,0,0,0
3.84,-2.5,0,0,0,0,0
3.841,-2.5,0,0,0,0,0
3.842,-2.1875,0,0,0,0,0
3.843,-1.875,0,0,0,0,0
3.844,-1.875,0,0,0,0,0
3.845,-1.875,0,0,0,0,0
3.846,-1.875,0,0,0,0,0
3.847,-1.875,0,0,0,0,0
3.848,-1.875,0,0,0,0,0
3.849,-1.875,0,0,0,0,0
3.85,-1.5625,0,0,0,0,0
3.851,-1.875,0,0,0,0,0
3.852,-2.1875,0,0,0,0,0
3.853,-1.875,0,0,0,0,0
3.854,-2.1875,0,0,0,0,0
3.855,-2.5,0,0,0,0,0
3.856,-1.5625,0,0,0,0,0
3.857,-1.875,0,0,0,0,0
3.858,-2.1875,0,0,0,0,0
3.859,-2.5,0,0,0,0,0
3.86,-1.875,0,0,0,0,0
3.861,-1.875,0,0,0,0,0
3.862,-1.875,0,0,0,0,0
3.863,-1.875,0,0,0,0,0
3.864,-1.875,0,0,0,0,0
3.865,-1.25,0,0,0,0,0
3.866,-1.5625,0,0,0,0,0
3.867,-1.25,0,0,0,0,0
3.868,-0.9375,0,0,0,0,0
3.869,-0.625,0,0,0,0,0
3.87,-0.3125,0,0,0,0,0
3.871,-0.625,0,0,0,0,0
3.872,0,0,0,0,0,0
3.873,0.625,0,0,0,0,0
3.874,0.625,0,0,0,0,0
3.875,0.625,0,0,0,0,0
3.876,0.9375,0,0,0,0,0
3.877,1.25,0,0,0,0,0
3.878,0,0,0,0,0,0
3.879,-0.625,0,0,0,0,0
3.88,-0.3125,0,0,0,0,0
3.881,-0.625,0,0,0,0,0
3.882,-0.625,0,0,0,0,0
3.883,-1.25,0,0,0,0,0
3.884,-1.5625,0,0,0,0,0
3.885,-1.25,0,0,0,0,0
3.886,-1.25,0,0,0,0,0
3.887,-1.25,0,0,0,0,0
3.888,-0.9375,0,0,0,0,0
3.889,-0.625,0,0,0,0,0
3.89,-0.625,0,0,0,0,0
3.891,-0.625,0,0,0,0,0
3.892,-0.9375,0,0,0,0,0
3.893,-1.25,0,0,0,0,0
3.894,-1.25,0,0,0,0,0
3.895,-0.625,0,0,0,0,0
3.896,-1.5625,0,0,0,0,0
3.897,-1.875,0,0,0,0,0
3.898,-1.5625,0,0,0,0,0
3.899,-1.875,0,0,0,0,0
3.9,-1.875,0,0,0,0,0
3.901,-1.875,0,0,0,0,0
3.902,-1.875,0,0,0,0,0
3.903,-1.875,0,0,0,0,0
3.904,-2.1875,0,0,0,0,0
3.905,-1.875,0,0,0,0,0
3.906,-1.875,0,0,0,0,0
3.907,-1.875,0,0,0,0,0
3.908,-2.5,0,0,0,0,0
3.909,-2.5,0,0,0,0,0
3.91,-2.8125,0,0,0,0,0
3.911,-3.125,0,0,0,0,0
3.912,-3.125,0,0,0,0,0
3.913,-3.125,0,0,0,0,0
3.914,-3.125,0,0,0,0,0
3.915,-3.125,0,0,0,0,0
3.916,-3.125,0,0,0,0,0
3.917,-3.125,0,0,0,0,0
3.918,-3.125,0,0,0,0,0
3.919,-3.125,0,0,0,0,0
3.92,-2.8125,0,0,0,0,0
3.921,-2.5,0,0,0,0,0
3.922,-2.5,0,0,0,0,0
3.923,-2.5,0,0,0,0,0
3.924,-2.8125,0,0,0,0,0
3.925,-3.125,0,0,0,0,0
3.926,-2.8125,0,0,0,0,0
3.927,-2.5,0,0,0,0,0
3.928,-2.5,0,0,0,0,0
3.929,-2.5,0,0,0,0,0
3.93,-2.8125,0,0,0,0,0
3.931,-3.125,0,0,0,0,0
3.932,-3.75,0,0,0,0,0
3.933,-3.75,0,0,0,0,0
3.934,-4.0625,0,0,0,0,0
3.935,-4.375,0,0,0,0,0
3.936,-3.75,0,0,0,0,0
3.937,-3.75,0,0,0,0,0
3.938,-4.375,0,0,0,0,0
3.939,-3.75,0,0,0,0,0
3.94,-4.375,0,0,0,0,0
3.941,-4.375,0,0,0,0,0
3.942,-4.6875,0,0,0,0,0
3.943,-4.375,0,0,0,0,0
3.944,-5,0,0,0,0,0
3.945,-4.375,0,0,0,0,0
3.946,-3.75,0,0,0,0,0
3.947,-3.125,0,0,0,0,0
3.948,-2.8125,0,0,0,0,0
3.949,-2.5,0,0,0,0,0
3.95,-2.8125,0,0,0,0,0
3.951,-3.125,0,0,0,0,0
3.952,-2.5,0,0,0,0,0
3.953,-2.5,0,0,0,0,0
3.954,-2.5,0,0,0,0,0
3.955,-2.5,0,0,0,0,0
3.956,-2.8125,0,0,0,0,0
3.957,-3.125,0,0,0,0,0
3.958,-2.8125,0,0,0,0,0
3.959,-3.125,0,0,0,0,0
3.96,-2.8125,0,0,0,0,0
3.961,-3.125,0,0,0,0,0
3.962,-3.125,0,0,0,0,0
3.963,-3.125,0,0,0,0,0
3.964,-3.4375,0,0,0,0,0
3.965,-3.75,0,0,0,0,0
3.966,-3.125,0,0,0,0,0
3.967,-2.5,0,0,0,0,0
3.968,-1.875,0,0,0,0,0
3.969,-2.5,0,0,0,0,0
3.97,-2.8125,0,0,0,0,0
3.971,-3.125,0,0,0,0,0
3.972,-2.5,0,0,0,0,0
3.973,-2.5,0,0,0,0,0
3.974,-2.1875,0,0,0,0,0
3.975,-1.875,0,0,0,0,0
3.976,-1.875,0,0,0,0,0
3.977,-1.875,0,0,0,0,0
3.978,-2.1875,0,0,0,0,0
3.979,-2.5,0,0,0,0,0
3.98,-2.5,0,0,0,0,0
3.981,-3.125,0,0,0,0,0
3.982,-2.5,0,0,0,0,0
3.983,-2.5,0,0,0,0,0
3.984,-2.5,0,0,0,0,0
3.985,-2.5,0,0,0,0,0
3.986,-2.5,0,0,0,0,0
3.987,-2.5,0,0,0,0,0
3.988,-1.25,0,0,0,0,0
3.989,-0.625,0,0,0,0,0
3.99,-0.9375,0,0,0,0,0
3.991,-0.625,0,0,0,0,0
3.992,-0.9375,0,0,0,0,0
3.993,-0.625,0,0,0,0,0
3.994,-1.25,0,0,0,0,0
3.995,-1.25,0,0,0,0,0
3.996,-0.9375,0,0,0,0,0
3.997,-0.625,0,0,0,0,0
3.998,-0.9375,0,0,0,0,0
3.999,-1.25,0,0,0,0,0
4,-0.9375,0,0,0,0,0
4.001,-0.625,0,0,0,0,0
4.002,-1.25,0,0,0,0,0
4.003,-0.625,0,0,0,0,0
4.004,-0.9375,0,0,0,0,0
4.005,-1.25,0,0,0,0,0
4.006,-1.875,0,0,0,0,0
4.007,-2.5,0,0,0,0,0
4.008,-2.5,0,0,0,0,0
4.009,-2.5,0,0,0,0,0
4.01,-2.8125,0,0,0,0,0
4.011,-3.125,0,0,0,0,0
4.012,-2.8125,0,0,0,0,0
4.013,-2.5,0,0,0,0,0
4.014,-2.8125,0,0,0,0,0
4.015,-3.125,0,0,0,0,0
4.016,-3.125,0,0,0,0,0
4.017,-3.75,0,0,0,0,0
4.018,-3.4375,0,0,0,0,0
4.019,-3.75,0,0,0,0,0
4.02,-3.125,0,0,0,0,0
4.021,-2.5,0,0,0,0,0
4.022,-2.1875,0,0,0,0,0
4.023,-1.875,0,0,0,0,0
4.024,-2.8125,0,0,0,0,0
4.025,-3.125,0,0,0,0,0
4.026,-2.5,0,0,0,0,0
4.027,-2.5,0,0,0,0,0
4.028,-2.5,0,0,0,0,0
4.029,-2.5,0,0,0,0,0
4.03,-2.1875,0,0,0,0,0
4.031,-1.875,0,0,0,0,0
4.032,-1.25,0,0,0,0,0
4.033,-0.625,0,0,0,0,0
4.034,-1.25,1,0,0,0,0
4.035,-0.625,0,0,0,0,0
4.036,-1.875,0,0,0,0,0
4.037,-2.5,0,0,0,0,0
4.038,-2.1875,0,0,0,0,0
4.039,-1.875,0,0,0,0,0
4.04,-2.8125,0,0,0,0,0
4.041,-2.5,0,0,0,0,0
4.042,-3.125,0,0,0,0,0
4.043,-3.125,0,0,0,0,0
4.044,-4.375,0,0,0,0,0
4.045,-4.375,0,0,0,0,0
4.046,-4.6875,0,0,0,0,0
4.047,-4.375,0,0,0,0,0
4.048,-4.0625,0,0,0,0,0
4.049,-4.375,0,0,0,0,0
4.05,-4.0625,0,0,0,0,0
4.051,-4.375,0,0,0,0,0
4.052,-4.0625,0,0,0,0,0
4.053,-4.375,0,0,0,0,0
4.054,-4.375,0,0,0,0,0
4.055,-4.375,0,0,0,0,0
4.056,-5.3125,0,0,0,0,0
4.057,-5.625,0,0,0,0,0
4.058,-7.1875,0,0,0,0,0
4.059,-7.5,0,0,0,0,0
4.06,-7.1875,0,0,0,0,0
4.061,-6.875,0,0,0,0,0
4.062,-7.5,0,0,0,0,0
4.063,-8.75,0,0,0,0,0
4.064,-9.375,0,0,0,0,0
4.065,-11.25,0,0,0,0,0
4.066,-12.188,0,0,0,0,0
4.067,-13.125,0,0,0,0,0
4.068,-14.375,0,0,0,0,0
4.069,-15.625,0,0,0,0,0
4.07,-17.188,0,0,0,0,0
4.071,-19.375,0,0,0,0,0
4.072,-21.875,0,0,0,0,0
4.073,-23.75,0,0,0,0,0
4.074,-25.313,0,0,0,0,0
4.075,-25.625,0,0,0,0,0
4.076,-26.875,0,0,0,0,0
4.077,-28.75,0,0,0,0,0
4.078,-30.938,0,0,0,0,0
4.079,-32.5,0,0,0,0,0
4.08,-33.75,0,0,0,0,0
4.081,-34.375,0,0,0,0,0
4.082,-35.625,0,0,0,0,0
4.083,-36.875,0,0,0,0,0
4.084,-38.75,0,0,0,0,0
4.085,-40,0,0,0,0,0
4.086,-40.938,0,0,0,0,0
4.087,-41.875,0,0,0,0,0
4.088,-42.813,0,0,0,0,0
4.089,-44.375,0,0,0,0,0
4.09,-45.625,0,0,0,0,0
4.091,-46.875,0,0,0,0,0
4.092,-47.5,0,1,0,0,0
4.093,-47.5,0,0,0,0,0
4.094,-48.438,0,0,0,0,0
4.095,-48.75,0,0,0,0,0
4.096,-48.125,0,0,0,0,0
4.097,-47.5,0,0,0,0,0
4.098,-45.938,0,0,0,0,0
4.099,-44.375,0,0,0,0,0
4.1,-42.5,0,0,0,0,0
4.101,-41.25,0,0,0,0,0
4.102,-40.625,0,0,0,0,0
4.103,-40,0,0,0,0,0
4.104,-40.313,0,0,0,0,0
4.105,-39.375,0,0,0,0,0
4.106,-39.375,0,0,0,0,0
4.107,-38.75,0,0,0,0,0
4.108,-38.125,0,0,0,0,0
4.109,-36.875,0,0,0,0,0
4.11,-35.938,0,0,0,0,0
4.111,-35,0,0,0,0,0
4.112,-33.75,0,0,0,0,0
4.113,-32.5,0,0,0,0,0
4.114,-30.625,0,0,0,0,0
4.115,-28.75,0,0,0,0,0
4.116,-27.813,0,0,0,0,0
4.117,-26.875,0,0,0,0,0
4.118,-26.25,0,0,0,0,0
4.119,-25,0,0,0,0,0
4.12,-23.75,0,0,0,0,0
4.121,-22.5,0,0,0,0,0
4.122,-21.25,0,0,0,0,0
4.123,-19.375,0,0,0,0,0
4.124,-17.813,0,0,0,0,0
4.125,-16.25,0,0,0,0,0
4.126,-15,0,0,0,0,0
4.127,-13.75,0,0,0,0,0
4.128,-11.25,0,0,0,0,0
4.129,-10.625,0,0,0,0,0
4.13,-9.6875,0,0,0,0,0
4.131,-9.375,0,0,0,0,0
4.132,-7.8125,0,0,0,0,0
4.133,-6.25,0,0,0,0,0
4.134,-4.6875,0,0,0,0,0
4.135,-3.125,0,0,0,0,0
4.136,-2.8125,0,0,0,0,0
4.137,-1.875,0,0,0,0,0
4.138,-1.875,0,0,0,0,0
4.139,-1.25,0,0,0,0,0
4.14,0.3125,0,0,0,0,0
4.141,1.25,0,0,0,0,0
4.142,0.9375,0,0,0,0,0
4.143,1.25,0,0,0,0,0
4.144,1.25,0,0,0,0,0
4.145,1.25,0,0,0,0,0
4.146,1.875,0,0,0,0,0
4.147,2.5,0,0,0,0,0
4.148,2.8125,0,0,0,0,0
4.149,2.5,0,0,0,0,0
4.15,2.8125,0,0,0,0,0
4.151,1.875,0,0,0,0,0
4.152,2.5,0,0,0,0,0
4.153,2.5,0,0,0,0,0
4.154,2.1875,0,0,0,0,0
4.155,3.125,0,0,1,0,0
4.156,2.8125,0,0,0,0,0
4.157,2.5,0,0,0,0,0
4.158,2.1875,0,0,0,0,0
4.159,1.875,0,0,0,0,0
4.16,2.8125,0,0,0,0,0
4.161,3.125,0,0,0,0,0
4.162,3.4375,0,0,0,0,0
4.163,3.75,0,0,0,0,0
4.164,3.125,0,0,0,0,0
4.165,3.75,0,0,0,0,0
4.166,4.0625,0,0,0,0,0
4.167,4.375,0,0,0,0,0
4.168,4.0625,0,0,0,0,0
4.169,3.75,0,0,0,0,0
4.17,4.375,0,0,0,0,0
4.171,4.375,0,0,0,0,0
4.172,4.375,0,0,0,0,0
4.173,4.375,0,0,0,0,0
4.174,5.625,0,0,0,0,0
4.175,6.25,0,0,0,0,0
4.176,5.625,0,0,0,0,0
4.177,5.625,0,0,0,0,0
4.178,5.3125,0,0,0,0,0
4.179,5.625,0,0,0,0,0
4.18,5,0,0,0,0,0
4.181,5,0,0,0,0,0
4.182,5,0,0,0,0,0
4.183,4.375,0,0,0,0,0
4.184,3.75,0,0,0,0,0
4.185,3.75,0,0,0,0,0
4.186,3.75,0,0,0,0,0
4.187,3.75,0,0,0,0,0
4.188,3.75,0,0,0,0,0
4.189,3.125,0,0,0,0,0
4.19,2.8125,0,0,0,0,0
4.191,2.5,0,0,0,0,0
4.192,3.125,0,0,0,0,0
4.193,3.75,0,0,0,0,0
4.194,4.6875,0,0,0,0,0
4.195,5,0,0,0,0,0
4.196,4.6875,0,0,0,0,0
4.197,5,0,0,0,0,0
4.198,4.375,0,0,0,0,0
4.199,4.375,0,0,0,0,0
4.2,4.375,0,0,0,0,0
4.201,4.375,0,0,0,0,0
4.202,4.6875,0,0,0,0,0
4.203,5,0,0,0,0,0
4.204,4.375,0,0,0,0,0
4.205,4.375,0,0,0,0,0
4.206,5,0,0,0,0,0
4.207,5,0,0,0,0,0
4.208,5,0,0,0,0,0
4.209,5,0,0,0,0,0
4.21,5.3125,0,0,0,0,0
4.211,5.625,0,0,0,0,0
4.212,5.3125,0,0,0,0,0
4.213,5,0,0,0,0,0
4.214,5,0,0,0,0,0
4.215,5.625,0,0,0,0,0
4.216,4.375,0,0,0,0,0
4.217,4.375,0,0,0,0,0
4.218,4.6875,0,0,0,0,0
4.219,4.375,0,0,0,0,0
4.22,4.6875,0,0,0,0,0
4.221,5,0,0,0,0,0
4.222,5.3125,0,0,0,0,0
4.223,6.25,0,0,0,0,0
4.224,5.3125,0,0,0,0,0
4.225,5.625,0,0,0,0,0
4.226,5.3125,0,0,0,0,0
4.227,5.625,0,0,0,0,0
4.228,5,0,0,0,0,0
4.229,5.625,0,0,0,0,0
4.23,5.3125,0,0,0,0,0
4.231,5.625,0,0,0,0,0
4.232,5.3125,0,0,0,0,0
4.233,5,0,0,0,0,0
4.234,5.9375,0,0,0,0,0
4.235,6.25,0,0,0,0,0
4.236,6.875,0,0,0,0,0
4.237,6.875,0,0,0,0,0
4.238,6.5625,0,0,0,0,0
4.239,6.875,0,0,0,0,0
4.24,7.1875,0,0,0,0,0
4.241,7.5,0,0,0,0,0
4.242,6.5625,0,0,0,0,0
4.243,6.875,0,0,0,0,0
4.244,7.5,0,0,0,0,0
4.245,7.5,0,0,0,0,0
4.246,7.5,0,0,0,0,0
4.247,6.875,0,0,0,0,0
4.248,7.5,0,0,0,0,0
4.249,7.5,0,0,0,0,0
4.25,7.1875,0,0,0,0,0
4.251,6.875,0,0,0,0,0
4.252,6.5625,0,0,0,0,0
4.253,6.25,0,0,0,0,0
4.254,6.5625,0,0,0,0,0
4.255,6.875,0,0,0,0,0
4.256,6.5625,0,0,0,0,0
4.257,6.875,0,0,0,0,0
4.258,6.5625,0,0,0,0,0
4.259,6.875,0,0,0,0,0
4.26,6.875,0,0,0,0,0
4.261,7.5,0,0,0,0,0
4.262,7.5,0,0,0,0,0
4.263,7.5,0,0,0,0,0
4.264,7.1875,0,0,0,0,0
4.265,6.875,0,0,0,0,0
4.266,7.1875,0,0,0,0,0
4.267,8.125,0,0,0,0,0
4.268,7.5,0,0,0,0,0
4.269,7.5,0,0,0,0,0
4.27,8.75,0,0,0,0,0
4.271,9.375,0,0,0,0,0
4.272,9.0625,0,0,0,0,0
4.273,9.375,0,0,0,0,0
4.274,9.375,0,0,0,0,0
4.275,9.375,0,0,0,0,0
4.276,9.0625,0,0,0,0,0
4.277,8.75,0,0,0,0,0
4.278,8.4375,0,0,0,0,0
4.279,8.125,0,0,0,0,0
4.28,8.4375,0,0,0,0,0
4.281,8.75,0,0,0,0,0
4.282,8.4375,0,0,0,0,0
4.283,8.75,0,0,0,0,0
4.284,8.75,0,0,0,0,0
4.285,8.75,0,0,0,0,0
4.286,8.75,0,0,0,0,0
4.287,8.75,0,0,0,0,0
4.288,9.375,0,0,0,0,0
4.289,9.375,0,0,0,0,0
4.29,9.375,0,0,0,0,0
4.291,9.375,0,0,0,0,0
4.292,9.375,0,0,0,0,0
4.293,9.375,0,0,0,0,0
4.294,9.6875,0,0,0,0,0
4.295,10.625,0,0,0,0,0
4.296,10.313,0,0,0,0,0
4.297,10,0,0,0,0,0
4.298,10.313,0,0,0,0,0
4.299,10.625,0,0,0,0,0
4.3,10.625,0,0,0,0,0
4.301,10.625,0,0,0,0,0
4.302,11.25,0,0,0,0,0
4.303,11.25,0,0,0,0,0
4.304,10.938,0,0,0,0,0
4.305,10.625,0,0,0,0,0
4.306,10.313,0,0,0,0,0
4.307,10.625,0,0,0,0,0
4.308,10.938,0,0,0,0,0
4.309,11.25,0,0,0,0,0
4.31,11.25,0,0,0,0,0
4.311,11.25,0,0,0,0,0
4.312,11.563,0,0,0,0,0
4.313,11.25,0,0,0,0,0
4.314,11.563,0,0,0,0,0
4.315,11.875,0,0,0,0,0
4.316,11.563,0,0,0,0,0
4.317,11.25,0,0,0,0,0
4.318,11.875,0,0,0,0,0
4.319,12.5,0,0,0,0,0
4.32,12.5,0,0,0,0,0
4.321,13.75,0,0,0,0,0
4.322,13.75,0,0,0,0,0
4.323,13.75,0,0,0,0,0
4.324,13.75,0,0,0,0,0
4.325,13.75,0,0,0,0,0
4.326,14.375,0,0,0,0,0
4.327,15,0,0,0,0,0
4.328,14.688,0,0,0,0,0
4.329,14.375,0,0,0,0,0
4.33,14.688,0,0,0,0,0
4.331,14.375,0,0,0,0,0
4.332,15.313,0,0,0,0,0
4.333,15.625,0,0,0,0,0
4.334,15.938,0,0,0,0,0
4.335,16.25,0,0,0,0,0
4.336,15.625,0,0,0,0,0
4.337,15.625,0,0,0,0,0
4.338,15.625,0,0,0,0,0
4.339,15.625,0,0,0,0,0
4.34,15.938,0,0,0,0,0
4.341,16.875,0,0,0,0,0
4.342,16.875,0,0,0,0,0
4.343,17.5,0,0,0,0,0
4.344,16.563,0,0,0,0,0
4.345,16.875,0,0,0,0,0
4.346,16.875,0,0,0,0,0
4.347,17.5,0,0,0,0,0
4.348,17.5,0,0,0,0,0
4.349,17.5,0,0,0,0,0
4.35,18.125,0,0,0,0,0
4.351,18.125,0,0,0,0,0
4.352,18.75,0,0,0,0,0
4.353,18.75,0,0,0,0,0
4.354,19.063,0,0,0,0,0
4.355,19.375,0,0,0,0,0
4.356,19.375,0,0,0,0,0
4.357,18.75,0,0,0,0,0
4.358,18.75,0,0,0,0,0
4.359,19.375,0,0,0,0,0
4.36,19.063,0,0,0,0,0
4.361,18.75,0,0,0,0,0
4.362,19.063,0,0,0,0,0
4.363,20,0,0,0,0,0
4.364,20.625,0,0,0,0,0
4.365,21.25,0,0,0,0,0
4.366,21.875,0,0,0,0,0
4.367,22.5,0,0,0,0,0
4.368,22.188,0,0,0,0,0
4.369,22.5,0,0,0,0,0
4.37,22.813,0,0,0,0,0
4.371,23.125,0,0,0,0,0
4.372,22.813,0,0,0,0,0
4.373,23.125,0,0,0,0,0
4.374,22.813,0,0,0,0,0
4.375,22.5,0,0,0,0,0
4.376,22.813,0,0,0,0,0
4.377,21.875,0,0,0,0,0
4.378,22.188,0,0,0,0,0
4.379,22.5,0,0,0,0,0
4.38,21.875,0,0,0,0,0
4.381,21.875,0,0,0,0,0
4.382,22.188,0,0,0,0,0
4.383,22.5,0,0,0,1,0
4.384,22.5,0,0,0,0,0
4.385,22.5,0,0,0,0,0
4.386,21.875,0,0,0,0,0
4.387,22.5,0,0,0,0,0
4.388,22.813,0,0,0,0,0
4.389,23.125,0,0,0,0,0
4.39,23.125,0,0,0,0,0
4.391,23.125,0,0,0,0,0
4.392,23.125,0,0,0,0,0
4.393,23.125,0,0,0,0,0
4.394,22.813,0,0,0,0,0
4.395,22.5,0,0,0,0,0
4.396,22.813,0,0,0,0,0
4.397,22.5,0,0,0,0,0
4.398,22.188,0,0,0,0,0
4.399,21.25,0,0,0,0,0
4.4,21.875,0,0,0,0,0
4.401,21.25,0,0,0,0,0
4.402,20.938,0,0,0,0,0
4.403,21.25,0,0,0,0,0
4.404,20.938,0,0,0,0,0
4.405,20.625,0,0,0,0,0
4.406,20.625,0,0,0,0,0
4.407,20.625,0,0,0,0,0
4.408,20.625,0,0,0,0,0
4.409,20,0,0,0,0,0
4.41,20,0,0,0,0,0
4.411,19.375,0,0,0,0,0
4.412,19.688,0,0,0,0,0
4.413,19.375,0,0,0,0,0
4.414,18.438,0,0,0,0,0
4.415,18.125,0,0,0,0,0
4.416,17.5,0,0,0,0,0
4.417,16.875,0,0,0,0,0
4.418,17.188,0,0,0,0,0
4.419,16.875,0,0,0,0,0
4.42,16.875,0,0,0,0,0
4.421,16.875,0,0,0,0,0
4.422,16.25,0,0,0,0,0
4.423,15.625,0,0,0,0,0
4.424,14.688,0,0,0,0,0
4.425,13.75,0,0,0,0,0
4.426,14.063,0,0,0,0,0
4.427,13.75,0,0,0,0,0
4.428,14.063,0,0,0,0,0
4.429,13.125,0,0,0,0,0
4.43,12.813,0,0,0,0,0
4.431,12.5,0,0,0,0,0
4.432,12.5,0,0,0,0,0
4.433,12.5,0,0,0,0,0
4.434,12.188,0,0,0,0,0
4.435,11.875,0,0,0,0,0
4.436,11.563,0,0,0,0,0
4.437,10.625,0,0,0,0,0
4.438,10.938,0,0,0,0,0
4.439,10.625,0,0,0,0,0
4.44,10,0,0,0,0,0
4.441,10,0,0,0,0,0
4.442,9.375,0,0,0,0,0
4.443,8.75,0,0,0,0,0
4.444,8.125,0,0,0,0,0
4.445,7.5,0,0,0,0,0
4.446,8.4375,0,0,0,0,0
4.447,8.125,0,0,0,0,0
4.448,7.8125,0,0,0,0,0
4.449,8.125,0,0,0,0,0
4.45,7.8125,0,0,0,0,0
4.451,6.875,0,0,0,0,0
4.452,6.5625,0,0,0,0,0
4.453,5.625,0,0,0,0,0
4.454,5.625,0,0,0,0,0
4.455,5.625,0,0,0,0,0
4.456,5,0,0,0,0,0
4.457,4.375,0,0,0,0,0
4.458,4.0625,0,0,0,0,0
4.459,3.75,0,0,0,0,0
4.46,3.4375,0,0,0,0,0
4.461,3.75,0,0,0,0,0
4.462,3.125,0,0,0,0,0
4.463,3.125,0,0,0,0,0
4.464,2.1875,0,0,0,0,0
4.465,1.875,0,0,0,0,0
4.466,2.5,0,0,0,0,0
4.467,2.5,0,0,0,0,0
4.468,2.5,0,0,0,0,0
4.469,2.5,0,0,0,0,0
4.47,2.5,0,0,0,0,0
4.471,2.5,0,0,0,0,0
4.472,2.1875,0,0,0,0,0
4.473,2.5,0,0,0,0,0
4.474,2.1875,0,0,0,0,0
4.475,1.875,0,0,0,0,0
4.476,2.1875,0,0,0,0,0
4.477,2.5,0,0,0,0,0
4.478,1.875,0,0,0,0,0
4.479,1.875,0,0,0,0,0
4.48,2.1875,0,0,0,0,0
4.481,2.5,0,0,0,0,0
4.482,1.5625,0,0,0,0,0
4.483,1.25,0,0,0,0,0
4.484,1.25,0,0,0,0,0
4.485,1.25,0,0,0,0,0
4.486,0.9375,0,0,0,0,0
4.487,0.625,0,0,0,0,0
4.488,0.9375,0,0,0,0,0
4.489,1.25,0,0,0,0,0
4.49,0.9375,0,0,0,0,0
4.491,0.625,0,0,0,0,0
4.492,0.625,0,0,0,0,0
4.493,0.625,0,0,0,0,0
4.494,-0.3125,0,0,0,0,0
4.495,0,0,0,0,0,0
4.496,-0.3125,0,0,0,0,0
4.497,0,0,0,0,0,0
4.498,0,0,0,0,0,0
4.499,0,0,0,0,0,0
4.5,-0.3125,0,0,0,0,0
4.501,0,0,0,0,0,0
4.502,0,0,0,0,0,0
4.503,0.625,0,0,0,0,0
4.504,0,0,0,0,0,1
4.505,0,0,0,0,0,0
4.506,-0.3125,0,0,0,0,0
4.507,0,0,0,0,0,0
4.508,-0.625,0,0,0,0,0
4.509,0,0,0,0,0,0
4.51,0.625,0,0,0,0,0
4.511,0.625,0,0,0,0,0
4.512,0.625,0,0,0,0,0
4.513,0.625,0,0,0,0,0
4.514,0.625,0,0,0,0,0
4.515,0.625,0,0,0,0,0
4.516,0.3125,0,0,0,0,0
4.517,0,0,0,0,0,0
4.518,-0.3125,0,0,0,0,0
4.519,-0.625,0,0,0,0,0
4.52,-0.625,0,0,0,0,0
4.521,0,0,0,0,0,0
4.522,0.3125,0,0,0,0,0
4.523,0.625,0,0,0,0,0
4.524,0.625,0,0,0,0,0
4.525,0.625,0,0,0,0,0
4.526,0,0,0,0,0,0
4.527,0.625,0,0,0,0,0
4.528,0.3125,0,0,0,0,0
4.529,0,0,0,0,0,0
4.53,0,0,0,0,0,0
4.531,0,0,0,0,0,0
4.532,0.3125,0,0,0,0,0
4.533,0.625,0,0,0,0,0
4.534,0.3125,0,0,0,0,0
4.535,0,0,0,0,0,0
4.536,0,0,0,0,0,0
4.537,0,0,0,0,0,0
4.538,0,0,0,0,0,0
4.539,0,0,0,0,0,0
4.54,-0.3125,0,0,0,0,0
4.541,-0.625,0,0,0,0,0
4.542,-0.625,0,0,0,0,0
4.543,-0.625,0,0,0,0,0
4.544,-1.5625,0,0,0,0,0
4.545,-1.25,0,0,0,0,0
4.546,-0.9375,0,0,0,0,0
4.547,-0.625,0,0,0,0,0
4.548,-0.625,0,0,0,0,0
4.549,-0.625,0,0,0,0,0
4.55,-0.625,0,0,0,0,0
4.551,-1.25,0,0,0,0,0
4.552,-0.625,0,0,0,0,0
4.553,-0.625,0,0,0,0,0
4.554,-0.3125,0,0,0,0,0
4.555,0,0,0,0,0,0
4.556,0,0,0,0,0,0
4.557,0,0,0,0,0,0
4.558,-0.3125,0,0,0,0,0
4.559,-0.625,0,0,0,0,0
4.56,-0.3125,0,0,0,0,0
4.561,0,0,0,0,0,0
4.562,0.3125,0,0,0,0,0
4.563,0.625,0,0,0,0,0
4.564,0.3125,0,0,0,0,0
4.565,0,0,0,0,0,0
4.566,0.625,0,0,0,0,0
4.567,0.625,0,0,0,0,0
4.568,0.3125,0,0,0,0,0
4.569,0,0,0,0,0,0
4.57,0.9375,0,0,0,0,0
4.571,1.25,0,0,0,0,0
4.572,0.3125,0,0,0,0,0
4.573,0,0,0,0,0,0
4.574,0.625,0,0,0,0,0
4.575,0.625,0,0,0,0,0
4.576,0.3125,0,0,0,0,0
4.577,0,0,0,0,0,0
4.578,0.3125,0,0,0,0,0
4.579,0.625,0,0,0,0,0
4.58,0.625,0,0,0,0,0
4.581,0.625,0,0,0,0,0
4.582,0.625,0,0,0,0,0
4.583,0.625,0,0,0,0,0
4.584,0.3125,0,0,0,0,0
4.585,0,0,0,0,0,0
4.586,0.3125,0,0,0,0,0
4.587,0,0,0,0,0,0
4.588,0,0,0,0,0,0
4.589,-0.625,0,0,0,0,0
4.59,-0.625,0,0,0,0,0
4.591,-0.625,0,0,0,0,0
4.592,-0.625,0,0,0,0,0
4.593,-0.625,0,0,0,0,0
4.594,0.3125,0,0,0,0,0
4.595,0.625,0,0,0,0,0
4.596,0.9375,0,0,0,0,0
4.597,1.25,0,0,0,0,0
4.598,0.625,0,0,0,0,0
4.599,1.25,0,0,0,0,0
4.6,0.625,0,0,0,0,0
4.601,0.625,0,0,0,0,0
4.602,1.25,0,0,0,0,0
4.603,0.625,0,0,0,0,0
4.604,0.3125,0,0,0,0,0
4.605,0,0,0,0,0,0
4.606,-0.3125,0,0,0,0,0
4.607,-0.625,0,0,0,0,0
4.608,-0.625,0,0,0,0,0
4.609,-0.625,0,0,0,0,0
4.61,-0.625,0,0,0,0,0
4.611,-0.625,0,0,0,0,0
4.612,-0.3125,0,0,0,0,0
4.613,0,0,0,0,0,0
4.614,0,0,0,0,0,0
4.615,0,0,0,0,0,0
4.616,0.3125,0,0,0,0,0
4.617,0,0,0,0,0,0
4.618,0,0,0,0,0,0
4.619,-0.625,0,0,0,0,0
4.62,0,0,0,0,0,0
4.621,0,0,0,0,0,0
4.622,-0.3125,0,0,0,0,0
4.623,-0.625,0,0,0,0,0
4.624,-1.25,0,0,0,0,0
4.625,-0.625,0,0,0,0,0
4.626,-0.9375,0,0,0,0,0
4.627,-0.625,0,0,0,0,0
4.628,0,0,0,0,0,0
4.629,-0.625,0,0,0,0,0
4.63,-0.625,0,0,0,0,0
4.631,0,0,0,0,0,0
4.632,-0.625,0,0,0,0,0
4.633,-0.625,0,0,0,0,0
4.634,-0.3125,0,0,0,0,0
4.635,0,0,0,0,0,0
4.636,0,0,0,0,0,0
4.637,0,0,0,0,0,0
4.638,0.625,0,0,0,0,0
4.639,0.625,0,0,0,0,0
4.64,0.625,0,0,0,0,0
4.641,0.625,0,0,0,0,0
4.642,0.9375,0,0,0,0,0
4.643,0.625,0,0,0,0,0
4.644,0.3125,0,0,0,0,0
4.645,0,0,0,0,0,0
4.646,0.3125,0,0,0,0,0
4.647,0.625,0,0,0,0,0
4.648,0.3125,0,0,0,0,0
4.649,0,0,0,0,0,0
4.65,0,0,0,0,0,0
4.651,0,0,0,0,0,0
4.652,-0.625,0,0,0,0,0
4.653,-1.25,0,0,0,0,0
4.654,-0.3125,0,0,0,0,0
4.655,0,0,0,0,0,0
4.656,-0.3125,0,0,0,0,0
4.657,0,0,0,0,0,0
4.658,0.3125,0,0,0,0,0
4.659,0.625,0,0,0,0,0
4.66,0.625,0,0,0,0,0
4.661,0.625,0,0,0,0,0
4.662,0.3125,0,0,0,0,0
4.663,0,0,0,0,0,0
4.664,-0.3125,0,0,0,0,0
4.665,-0.625,0,0,0,0,0
4.666,-0.625,0,0,0,0,0
4.667,-0.625,0,0,0,0,0
4.668,-0.625,0,0,0,0,0
4.669,-0.625,0,0,0,0,0
4.67,-0.3125,0,0,0,0,0
4.671,-0.625,0,0,0,0,0
4.672,-0.3125,0,0,0,0,0
4.673,-0.625,0,0,0,0,0
4.674,-0.625,0,0,0,0,0
4.675,-0.625,0,0,0,0,0
4.676,-0.9375,0,0,0,0,0
4.677,-1.25,0,0,0,0,0
4.678,-1.25,0,0,0,0,0
4.679,-1.25,0,0,0,0,0
4.68,-0.9375,0,0,0,0,0
4.681,-0.625,0,0,0,0,0
4.682,-0.625,0,0,0,0,0
4.683,-0.625,0,0,0,0,0
4.684,-0.625,0,0,0,0,0
4.685,-0.625,0,0,0,0,0
4.686,-0.625,0,0,0,0,0
4.687,-0.625,0,0,0,0,0
4.688,-0.625,0,0,0,0,0
4.689,-0.625,0,0,0,0,0
4.69,-0.3125,0,0,0,0,0
4.691,0,0,0,0,0,0
4.692,0,0,0,0,0,0
4.693,0,0,0,0,0,0
4.694,0.3125,0,0,0,0,0
4.695,0.625,0,0,0,0,0
4.696,0,0,0,0,0,0
4.697,-0.625,0,0,0,0,0
4.698,-0.625,0,0,0,0,0
4.699,-0.625,0,0,0,0,0
4.7,-0.3125,0,0,0,0,0
4.701,0,0,0,0,0,0
4.702,-0.3125,0,0,0,0,0
4.703,-1.25,0,0,0,0,0
4.704,-0.625,0,0,0,0,0
4.705,-1.25,0,0,0,0,0
4.706,-1.25,0,0,0,0,0
4.707,-1.25,0,0,0,0,0
4.708,-1.25,0,0,0,0,0
4.709,-0.625,0,0,0,0,0
4.71,-0.9375,0,0,0,0,0
4.711,-1.875,0,0,0,0,0
4.712,-1.25,0,0,0,0,0
4.713,-1.25,0,0,0,0,0
4.714,-2.1875,0,0,0,0,0
4.715,-1.875,0,0,0,0,0
4.716,-1.25,0,0,0,0,0
4.717,-1.25,0,0,0,0,0
4.718,-1.25,0,0,0,0,0
4.719,-1.25,0,0,0,0,0
4.72,-1.25,0,0,0,0,0
4.721,-0.625,0,0,0,0,0
4.722,-0.9375,0,0,0,0,0
4.723,-1.875,0,0,0,0,0
4.724,-0.9375,0,0,0,0,0
4.725,-1.25,0,0,0,0,0
4.726,-1.5625,0,0,0,0,0
4.727,-1.25,0,0,0,0,0
4.728,-0.9375,0,0,0,0,0
4.729,-0.625,0,0,0,0,0
4.73,-0.3125,0,0,0,0,0
4.731,0,0,0,0,0,0
4.732,-0.3125,0,0,0,0,0
4.733,0,0,0,0,0,0
4.734,0.625,0,0,0,0,0
4.735,0.625,0,0,0,0,0
4.736,0.3125,0,0,0,0,0
4.737,0,0,0,0,0,0
4.738,-0.625,0,0,0,0,0
4.739,0,0,0,0,0,0
4.74,-0.3125,0,0,0,0,0
4.741,-0.625,0,0,0,0,0
4.742,-0.625,0,0,0,0,0
4.743,-0.625,0,0,0,0,0
4.744,-0.3125,0,0,0,0,0
4.745,0,0,0,0,0,0
4.746,0.3125,0,0,0,0,0
4.747,0.625,0,0,0,0,0
4.748,0,0,0,0,0,0
4.749,0,0,0,0,0,0
4.75,0.3125,0,0,0,0,0
4.751,0.625,0,0,0,0,0
4.752,0.3125,0,0,0,0,0
4.753,0,0,0,0,0,0
4.754,-0.3125,0,0,0,0,0
4.755,-0.625,0,0,0,0,0
4.756,-0.3125,0,0,0,0,0
4.757,0,0,0,0,0,0
4.758,-0.3125,0,0,0,0,0
4.759,-0.625,0,0,0,0,0
4.76,-0.9375,0,0,0,0,0
4.761,-0.625,0,0,0,0,0
4.762,-0.625,0,0,0,0,0
4.763,-0.625,0,0,0,0,0
4.764,-0.3125,0,0,0,0,0
4.765,-0.625,0,0,0,0,0
4.766,0,0,0,0,0,0
4.767,0,0,0,0,0,0
4.768,-0.3125,0,0,0,0,0
4.769,-0.625,0,0,0,0,0
4.77,-0.9375,0,0,0,0,0
4.771,-1.25,0,0,0,0,0
4.772,-0.9375,0,0,0,0,0
4.773,-1.25,0,0,0,0,0
4.774,-0.9375,0,0,0,0,0
4.775,-0.625,0,0,0,0,0
4.776,-0.9375,0,0,0,0,0
4.777,-0.625,0,0,0,0,0
4.778,-1.25,0,0,0,0,0
4.779,-1.25,0,0,0,0,0
4.78,-0.9375,0,0,0,0,0
4.781,0,0,0,0,0,0
4.782,-0.3125,0,0,0,0,0
4.783,-0.625,0,0,0,0,0
4.784,0,0,0,0,0,0
4.785,0,0,0,0,0,0
4.786,0,0,0,0,0,0
4.787,-0.625,0,0,0,0,0
4.788,0,0,0,0,0,0
4.789,-0.625,0,0,0,0,0
4.79,-0.3125,0,0,0,0,0
4.791,-0.625,0,0,0,0,0
4.792,-0.3125,0,0,0,0,0
4.793,0,0,0,0,0,0
4.794,-0.3125,0,0,0,0,0
4.795,-0.625,0,0,0,0,0
4.796,0.3125,0,0,0,0,0
4.797,0,0,0,0,0,0
4.798,0,0,0,0,0,0
4.799,0,0,0,0,0,0
4.8,-0.3125,0,0,0,0,0
4.801,0,0,0,0,0,0
4.802,0,0,0,0,0,0
4.803,0.625,0,0,0,0,0
4.804,0,0,0,0,0,0
4.805,0,0,0,0,0,0
4.806,0.3125,0,0,0,0,0
4.807,0.625,0,0,0,0,0
4.808,0.9375,0,0,0,0,0
4.809,1.25,0,0,0,0,0
4.81,0.625,0,0,0,0,0
4.811,0.625,0,0,0,0,0
4.812,0,0,0,0,0,0
4.813,0,0,0,0,0,0
4.814,0.625,0,0,0,0,0
4.815,0.625,0,0,0,0,0
4.816,0.9375,0,0,0,0,0
4.817,0.625,0,0,0,0,0
4.818,0.9375,0,0,0,0,0
4.819,1.25,0,0,0,0,0
4.82,0.625,0,0,0,0,0
4.821,0.625,0,0,0,0,0
4.822,0.9375,0,0,0,0,0
4.823,0.625,0,0,0,0,0
4.824,0.3125,0,0,0,0,0
4.825,0,0,0,0,0,0
4.826,-0.3125,0,0,0,0,0
4.827,-0.625,0,0,0,0,0
4.828,0,0,0,0,0,0
4.829,0,0,0,0,0,0
4.83,0,0,0,0,0,0
4.831,0,0,0,0,0,0
4.832,-0.3125,0,0,0,0,0
4.833,0,0,0,0,0,0
4.834,0,0,0,0,0,0
4.835,0,0,0,0,0,0
4.836,0.625,0,0,0,0,0
4.837,0,0,0,0,0,0
4.838,-0.3125,0,0,0,0,0
4.839,-0.625,0,0,0,0,0
4.84,0,0,0,0,0,0
4.841,-0.625,0,0,0,0,0
4.842,-0.3125,0,0,0,0,0
4.843,-0.625,0,0,0,0,0
4.844,0,0,0,0,0,0
4.845,0,0,0,0,0,0
4.846,-0.3125,0,0,0,0,0
4.847,-0.625,0,0,0,0,0
4.848,-0.625,0,0,0,0,0
4.849,-0.625,0,0,0,0,0
4.85,-0.625,0,0,0,0,0
4.851,-0.625,0,0,0,0,0
4.852,-0.625,0,0,0,0,0
4.853,-0.625,0,0,0,0,0
4.854,0,0,0,0,0,0
4.855,0,0,0,0,0,0
4.856,0,0,0,0,0,0
4.857,0,0,0,0,0,0
4.858,0.3125,0,0,0,0,0
4.859,0.625,0,0,0,0,0
4.86,0.625,0,0,0,0,0
4.861,0.625,0,0,0,0,0
4.862,0.9375,0,0,0,0,0
4.863,1.25,0,0,0,0,0
4.864,1.5625,0,0,0,0,0
4.865,1.25,0,0,0,0,0
4.866,1.875,0,0,0,0,0
4.867,1.875,0,0,0,0,0
4.868,0.9375,0,0,0,0,0
4.869,0,0,0,0,0,0
4.87,0.3125,0,0,0,0,0
4.871,0,0,0,0,0,0
4.872,0,0,0,0,0,0
4.873,0,0,0,0,0,0
4.874,0,0,0,0,0,0
4.875,0,0,0,0,0,0
4.876,-0.3125,0,0,0,0,0
4.877,-0.625,0,0,0,0,0
4.878,-0.625,0,0,0,0,0
4.879,-0.625,0,0,0,0,0
4.88,-0.625,0,0,0,0,0
4.881,0,0,0,0,0,0
4.882,-0.625,0,0,0,0,0
4.883,0,0,0,0,0,0
4.884,0,0,0,0,0,0
4.885,0,0,0,0,0,0
4.886,0.3125,0,0,0,0,0
4.887,0.625,0,0,0,0,0
4.888,0.3125,0,0,0,0,0
4.889,0,0,0,0,0,0
4.89,-0.3125,0,0,0,0,0
4.891,-0.625,0,0,0,0,0
4.892,0,0,0,0,0,0
4.893,0.625,0,0,0,0,0
4.894,0.625,0,0,0,0,0
4.895,0.625,0,0,0,0,0
4.896,0.625,0,0,0,0,0
4.897,0.625,0,0,0,0,0
4.898,0.625,0,0,0,0,0
4.899,0,0,0,0,0,0
4.9,0,0,0,0,0,0
4.901,0.625,0,0,0,0,0
4.902,0.625,0,0,0,0,0
4.903,0.625,0,0,0,0,0
4.904,0.9375,0,0,0,0,0
4.905,0,0,0,0,0,0
4.906,0.3125,0,0,0,0,0
4.907,0.625,0,0,0,0,0
4.908,0.9375,0,0,0,0,0
4.909,0.625,0,0,0,0,0
4.91,0.9375,0,0,0,0,0
4.911,1.25,0,0,0,0,0
4.912,0.625,0,0,0,0,0
4.913,0.625,0,0,0,0,0
4.914,0.625,0,0,0,0,0
4.915,1.25,0,0,0,0,0
4.916,1.25,0,0,0,0,0
4.917,1.25,0,0,0,0,0
4.918,1.5625,0,0,0,0,0
4.919,1.25,0,0,0,0,0
4.92,1.5625,0,0,0,0,0
4.921,1.875,0,0,0,0,0
4.922,1.875,0,0,0,0,0
4.923,1.875,0,0,0,0,0
4.924,2.1875,0,0,0,0,0
4.925,2.5,0,0,0,0,0
4.926,1.875,0,0,0,0,0
4.927,1.875,0,0,0,0,0
4.928,2.8125,0,0,0,0,0
4.929,3.125,0,0,0,0,0
4.93,3.4375,0,0,0,0,0
4.931,3.125,0,0,0,0,0
4.932,2.8125,0,0,0,0,0
4.933,3.125,0,0,0,0,0
4.934,2.8125,0,0,0,0,0
4.935,2.5,0,0,0,0,0
4.936,2.5,0,0,0,0,0
4.937,2.5,0,0,0,0,0
4.938,2.5,0,0,0,0,0
4.939,2.5,0,0,0,0,0
4.94,2.5,0,0,0,0,0
4.941,2.5,0,0,0,0,0
4.942,2.1875,0,0,0,0,0
4.943,2.5,0,0,0,0,0
4.944,1.875,0,0,0,0,0
4.945,1.875,0,0,0,0,0
4.946,2.1875,0,0,0,0,0
4.947,1.875,0,0,0,0,0
4.948,1.875,0,0,0,0,0
4.949,1.875,0,0,0,0,0
4.95,1.875,0,0,0,0,0
4.951,1.875,0,0,0,0,0
4.952,1.5625,0,0,0,0,0
4.953,1.875,0,0,0,0,0
4.954,1.875,0,0,0,0,0
4.955,1.875,0,0,0,0,0
4.956,1.5625,0,0,0,0,0
4.957,1.875,0,0,0,0,0
4.958,1.875,0,0,0,0,0
4.959,1.875,0,0,0,0,0
4.96,1.875,0,0,0,0,0
4.961,1.875,0,0,0,0,0
4.962,1.875,0,0,0,0,0
4.963,1.875,0,0,0,0,0
4.964,1.875,0,0,0,0,0
4.965,1.875,0,0,0,0,0
4.966,2.1875,0,0,0,0,0
4.967,2.5,0,0,0,0,0
4.968,2.8125,0,0,0,0,0
4.969,3.125,0,0,0,0,0
4.97,2.5,0,0,0,0,0
4.971,1.875,0,0,0,0,0
4.972,1.5625,0,0,0,0,0
4.973,1.25,0,0,0,0,0
4.974,1.25,0,0,0,0,0
4.975,1.25,0,0,0,0,0
4.976,1.5625,0,0,0,0,0
4.977,1.875,0,0,0,0,0
4.978,2.1875,0,0,0,0,0
4.979,2.5,0,0,0,0,0
4.98,2.1875,0,0,0,0,0
4.981,2.5,0,0,0,0,0
4.982,2.5,0,0,0,0,0
4.983,2.5,0,0,0,0,0
4.984,2.1875,0,0,0,0,0
4.985,1.25,0,0,0,0,0
4.986,0.625,0,0,0,0,0
4.987,1.25,0,0,0,0,0
4.988,1.25,0,0,0,0,0
4.989,1.875,0,0,0,0,0
4.99,1.875,0,0,0,0,0
4.991,2.5,0,0,0,0,0
4.992,2.1875,0,0,0,0,0
4.993,3.125,0,0,0,0,0
4.994,3.4375,0,0,0,0,0
4.995,3.75,0,0,0,0,0
4.996,3.75,0,0,0,0,0
4.997,3.75,0,0,0,0,0
4.998,3.125,0,0,0,0,0
4.999,2.5,0,0,0,0,0
5,3.125,0,0,0,0,0
5.001,3.125,0,0,0,0,0
5.002,2.8125,0,0,0,0,0
5.003,2.5,0,0,0,0,0
5.004,2.8125,0,0,0,0,0
5.005,3.125,0,0,0,0,0
5.006,3.4375,0,0,0,0,0
5.007,3.125,0,0,0,0,0
5.008,3.75,0,0,0,0,0
5.009,3.75,0,0,0,0,0
5.01,3.125,0,0,0,0,0
5.011,2.5,0,0,0,0,0
5.012,2.8125,0,0,0,0,0
5.013,3.125,0,0,0,0,0
5.014,3.125,0,0,0,0,0
5.015,3.125,0,0,0,0,0
5.016,3.4375,0,0,0,0,0
5.017,2.5,0,0,0,0,0
5.018,2.5,0,0,0,0,0
5.019,2.5,0,0,0,0,0
5.02,2.5,0,0,0,0,0
5.021,1.875,0,0,0,0,0
5.022,2.1875,0,0,0,0,0
5.023,2.5,0,0,0,0,0
5.024,2.5,0,0,0,0,0
5.025,2.5,0,0,0,0,0
5.026,2.5,0,0,0,0,0
5.027,2.5,0,0,0,0,0
5.028,2.8125,0,0,0,0,0
5.029,2.5,0,0,0,0,0
5.03,2.8125,0,0,0,0,0
5.031,2.5,0,0,0,0,0
5.032,2.8125,0,0,0,0,0
5.033,3.125,0,0,0,0,0
5.034,3.125,0,0,0,0,0
5.035,3.125,0,0,0,0,0
5.036,3.4375,0,0,0,0,0
5.037,3.125,0,0,0,0,0
5.038,2.8125,0,0,0,0,0
5.039,3.125,0,0,0,0,0
5.04,2.8125,0,0,0,0,0
5.041,3.125,0,0,0,0,0
5.042,2.5,0,0,0,0,0
5.043,2.5,0,0,0,0,0
5.044,2.1875,0,0,0,0,0
5.045,1.875,0,0,0,0,0
5.046,2.1875,0,0,0,0,0
5.047,2.5,0,0,0,0,0
5.048,2.5,0,0,0,0,0
5.049,2.5,0,0,0,0,0
5.05,1.5625,0,0,0,0,0
5.051,1.875,0,0,0,0,0
5.052,1.875,0,0,0,0,0
5.053,1.875,0,0,0,0,0
5.054,2.1875,0,0,0,0,0
5.055,2.5,0,0,0,0,0
5.056,2.1875,0,0,0,0,0
5.057,1.875,0,0,0,0,0
5.058,1.875,0,0,0,0,0
5.059,1.875,0,0,0,0,0
5.06,1.875,0,0,0,0,0
5.061,1.875,0,0,0,0,0
5.062,1.875,0,0,0,0,0
5.063,1.875,0,0,0,0,0
5.064,2.1875,0,0,0,0,0
5.065,1.875,0,0,0,0,0
5.066,2.1875,0,0,0,0,0
5.067,1.875,0,0,0,0,0
5.068,2.1875,0,0,0,0,0
5.069,2.5,0,0,0,0,0
5.07,2.1875,0,0,0,0,0
5.071,1.875,0,0,0,0,0
5.072,1.25,0,0,0,0,0
5.073,1.25,0,0,0,0,0
5.074,1.5625,0,0,0,0,0
5.075,1.25,0,0,0,0,0
5.076,0.9375,0,0,0,0,0
5.077,0.625,0,0,0,0,0
5.078,0.9375,0,0,0,0,0
5.079,1.25,0,0,0,0,0
5.08,1.5625,0,0,0,0,0
5.081,1.875,1,0,0,0,0
5.082,0.9375,0,0,0,0,0
5.083,1.25,0,0,0,0,0
5.084,0.9375,0,0,0,0,0
5.085,1.25,0,0,0,0,0
5.086,1.5625,0,0,0,0,0
5.087,1.875,0,0,0,0,0
5.088,0.9375,0,0,0,0,0
5.089,1.25,0,0,0,0,0
5.09,0.625,0,0,0,0,0
5.091,0.625,0,0,0,0,0
5.092,0,0,0,0,0,0
5.093,0.625,0,0,0,0,0
5.094,-0.3125,0,0,0,0,0
5.095,-0.625,0,0,0,0,0
5.096,-1.25,0,0,0,0,0
5.097,-2.5,0,0,0,0,0
5.098,-2.5,0,0,0,0,0
5.099,-3.125,0,0,0,0,0
5.1,-2.8125,0,0,0,0,0
5.101,-3.125,0,0,0,0,0
5.102,-3.125,0,0,0,0,0
5.103,-3.125,0,0,0,0,0
5.104,-3.75,0,0,0,0,0
5.105,-3.75,0,0,0,0,0
5.106,-5,0,0,0,0,0
5.107,-5,0,0,0,0,0
5.108,-5.625,0,0,0,0,0
5.109,-6.25,0,0,0,0,0
5.11,-6.875,0,0,0,0,0
5.111,-8.125,0,0,0,0,0
5.112,-8.75,0,0,0,0,0
5.113,-10.625,0,0,0,0,0
5.114,-11.563,0,0,0,0,0
5.115,-12.5,0,0,0,0,0
5.116,-14.688,0,0,0,0,0
5.117,-16.875,0,0,0,0,0
5.118,-18.125,0,0,0,0,0
5.119,-20,0,0,0,0,0
5.12,-22.5,0,0,0,0,0
5.121,-24.375,0,0,0,0,0
5.122,-26.563,0,0,0,0,0
5.123,-27.5,0,0,0,0,0
5.124,-28.438,0,0,0,0,0
5.125,-30,0,0,0,0,0
5.126,-31.563,0,0,0,0,0
5.127,-32.5,0,0,0,0,0
5.128,-34.063,0,0,0,0,0
5.129,-35,0,0,0,0,0
5.13,-35.938,0,0,0,0,0
5.131,-36.875,0,0,0,0,0
5.132,-37.813,0,0,0,0,0
5.133,-38.125,0,0,0,0,0
5.134,-38.75,0,0,0,0,0
5.135,-39.375,0,0,0,0,0
5.136,-40,0,0,0,0,0
5.137,-41.25,0,0,0,0,0
5.138,-42.188,0,0,0,0,0
5.139,-43.125,0,0,0,0,0
5.14,-44.375,0,0,0,0,0
5.141,-45,0,0,0,0,0
5.142,-45.625,0,0,0,0,0
5.143,-45.625,0,0,0,0,0
5.144,-45.313,0,1,0,0,0
5.145,-45,0,0,0,0,0
5.146,-42.5,0,0,0,0,0
5.147,-40,0,0,0,0,0
5.148,-39.063,0,0,0,0,0
5.149,-38.75,0,0,0,0,0
5.15,-37.813,0,0,0,0,0
5.151,-36.875,0,0,0,0,0
5.152,-36.563,0,0,0,0,0
5.153,-35,0,0,0,0,0
5.154,-34.688,0,0,0,0,0
5.155,-33.75,0,0,0,0,0
5.156,-33.125,0,0,0,0,0
5.157,-31.875,0,0,0,0,0
5.158,-31.25,0,0,0,0,0
5.159,-30.625,0,0,0,0,0
5.16,-29.375,0,0,0,0,0
5.161,-28.125,0,0,0,0,0
5.162,-26.875,0,0,0,0,0
5.163,-25.625,0,0,0,0,0
5.164,-25,0,0,0,0,0
5.165,-24.375,0,0,0,0,0
5.166,-23.75,0,0,0,0,0
5.167,-22.5,0,0,0,0,0
5.168,-21.25,0,0,0,0,0
5.169,-20,0,0,0,0,0
5.17,-19.375,0,0,0,0,0
5.171,-18.125,0,0,0,0,0
5.172,-15.938,0,0,0,0,0
5.173,-13.75,0,0,0,0,0
5.174,-12.188,0,0,0,0,0
5.175,-10.625,0,0,0,0,0
5.176,-8.4375,0,0,0,0,0
5.177,-8.125,0,0,0,0,0
5.178,-6.5625,0,0,0,0,0
5.179,-5.625,0,0,0,0,0
5.18,-4.375,0,0,0,0,0
5.181,-3.125,0,0,0,0,0
5.182,-1.875,0,0,0,0,0
5.183,-0.625,0,0,0,0,0
5.184,-0.625,0,0,0,0,0
5.185,0,0,0,0,0,0
5.186,0.3125,0,0,0,0,0
5.187,1.25,0,0,0,0,0
5.188,2.5,0,0,0,0,0
5.189,3.125,0,0,0,0,0
5.19,2.8125,0,0,0,0,0
5.191,3.125,0,0,0,0,0
5.192,3.125,0,0,0,0,0
5.193,3.125,0,0,0,0,0
5.194,3.125,0,0,0,0,0
5.195,3.125,0,0,0,0,0
5.196,3.4375,0,0,0,0,0
5.197,3.125,0,0,0,0,0
5.198,3.75,0,0,0,0,0
5.199,3.125,0,0,0,0,0
5.2,4.0625,0,0,0,0,0
5.201,4.375,0,0,0,0,0
5.202,3.75,0,0,0,0,0
5.203,4.375,0,0,0,0,0
5.204,4.375,0,0,0,0,0
5.205,4.375,0,0,0,0,0
5.206,4.375,0,0,0,0,0
5.207,4.375,0,0,0,0,0
5.208,4.6875,0,0,1,0,0
5.209,4.375,0,0,0,0,0
5.21,4.375,0,0,0,0,0
5.211,4.375,0,0,0,0,0
5.212,4.375,0,0,0,0,0
5.213,5.625,0,0,0,0,0
5.214,5.3125,0,0,0,0,0
5.215,5,0,0,0,0,0
5.216,5,0,0,0,0,0
5.217,5,0,0,0,0,0
5.218,5.625,0,0,0,0,0
5.219,5.625,0,0,0,0,0
5.22,5.625,0,0,0,0,0
5.221,5.625,0,0,0,0,0
5.222,6.25,0,0,0,0,0
5.223,6.25,0,0,0,0,0
5.224,5.625,0,0,0,0,0
5.225,5.625,0,0,0,0,0
5.226,5.3125,0,0,0,0,0
5.227,5.625,0,0,0,0,0
5.228,5,0,0,0,0,0
5.229,5,0,0,0,0,0
5.23,5.3125,0,0,0,0,0
5.231,5,0,0,0,0,0
5.232,4.6875,0,0,0,0,0
5.233,5,0,0,0,0,0
5.234,5.3125,0,0,0,0,0
5.235,5.625,0,0,0,0,0
5.236,5.9375,0,0,0,0,0
5.237,5.625,0,0,0,0,0
5.238,5.9375,0,0,0,0,0
5.239,6.25,0,0,0,0,0
5.24,6.25,0,0,0,0,0
5.241,6.25,0,0,0,0,0
5.242,6.875,0,0,0,0,0
5.243,6.875,0,0,0,0,0
5.244,6.25,0,0,0,0,0
5.245,6.25,0,0,0,0,0
5.246,5.9375,0,0,0,0,0
5.247,6.25,0,0,0,0,0
5.248,6.5625,0,0,0,0,0
5.249,6.875,0,0,0,0,0
5.25,6.875,0,0,0,0,0
5.251,6.875,0,0,0,0,0
5.252,6.25,0,0,0,0,0
5.253,6.25,0,0,0,0,0
5.254,6.875,0,0,0,0,0
5.255,6.875,0,0,0,0,0
5.256,6.5625,0,0,0,0,0
5.257,6.25,0,0,0,0,0
5.258,5.9375,0,0,0,0,0
5.259,5.625,0,0,0,0,0
5.26,5.3125,0,0,0,0,0
5.261,5,0,0,0,0,0
5.262,5.3125,0,0,0,0,0
5.263,6.25,0,0,0,0,0
5.264,5.625,0,0,0,0,0
5.265,6.25,0,0,0,0,0
5.266,6.5625,0,0,0,0,0
5.267,6.25,0,0,0,0,0
5.268,6.5625,0,0,0,0,0
5.269,6.875,0,0,0,0,0
5.27,6.5625,0,0,0,0,0
5.271,6.875,0,0,0,0,0
5.272,6.25,0,0,0,0,0
5.273,6.875,0,0,0,0,0
5.274,7.5,0,0,0,0,0
5.275,8.75,0,0,0,0,0
5.276,8.125,0,0,0,0,0
5.277,8.75,0,0,0,0,0
5.278,8.125,0,0,0,0,0
5.279,8.125,0,0,0,0,0
5.28,7.8125,0,0,0,0,0
5.281,7.5,0,0,0,0,0
5.282,8.125,0,0,0,0,0
5.283,8.125,0,0,0,0,0
5.284,7.8125,0,0,0,0,0
5.285,6.875,0,0,0,0,0
5.286,6.5625,0,0,0,0,0
5.287,6.875,0,0,0,0,0
5.288,7.1875,0,0,0,0,0
5.289,7.5,0,0,0,0,0
5.29,6.5625,0,0,0,0,0
5.291,6.875,0,0,0,0,0
5.292,7.5,0,0,0,0,0
5.293,7.5,0,0,0,0,0
5.294,7.8125,0,0,0,0,0
5.295,7.5,0,0,0,0,0
5.296,7.8125,0,0,0,0,0
5.297,7.5,0,0,0,0,0
5.298,7.1875,0,0,0,0,0
5.299,6.875,0,0,0,0,0
5.3,7.1875,0,0,0,0,0
5.301,7.5,0,0,0,0,0
5.302,7.5,0,0,0,0,0
5.303,7.5,0,0,0,0,0
5.304,7.1875,0,0,0,0,0
5.305,7.5,0,0,0,0,0
5.306,7.1875,0,0,0,0,0
5.307,7.5,0,0,0,0,0
5.308,7.1875,0,0,0,0,0
5.309,7.5,0,0,0,0,0
5.31,7.1875,0,0,0,0,0
5.311,6.875,0,0,0,0,0
5.312,7.5,0,0,0,0,0
5.313,8.125,0,0,0,0,0
5.314,8.4375,0,0,0,0,0
5.315,9.375,0,0,0,0,0
5.316,8.75,0,0,0,0,0
5.317,8.75,0,0,0,0,0
5.318,9.0625,0,0,0,0,0
5.319,8.75,0,0,0,0,0
5.32,8.75,0,0,0,0,0
5.321,9.375,0,0,0,0,0
5.322,9.375,0,0,0,0,0
5.323,9.375,0,0,0,0,0
5.324,9.375,0,0,0,0,0
5.325,9.375,0,0,0,0,0
5.326,9.6875,0,0,0,0,0
5.327,10,0,0,0,0,0
5.328,10,0,0,0,0,0
5.329,10,0,0,0,0,0
5.33,9.6875,0,0,0,0,0
5.331,10,0,0,0,0,0
5.332,10.313,0,0,0,0,0
5.333,10.625,0,0,0,0,0
5.334,10.313,0,0,0,0,0
5.335,10,0,0,0,0,0
5.336,10.313,0,0,0,0,0
5.337,10,0,0,0,0,0
5.338,10.625,0,0,0,0,0
5.339,11.25,0,0,0,0,0
5.34,11.25,0,0,0,0,0
5.341,11.25,0,0,0,0,0
5.342,10.938,0,0,0,0,0
5.343,11.25,0,0,0,0,0
5.344,10.625,0,0,0,0,0
5.345,10,0,0,0,0,0
5.346,10,0,0,0,0,0
5.347,10,0,0,0,0,0
5.348,9.6875,0,0,0,0,0
5.349,9.375,0,0,0,0,0
5.35,10.313,0,0,0,0,0
5.351,10.625,0,0,0,0,0
5.352,10.938,0,0,0,0,0
5.353,11.25,0,0,0,0,0
5.354,11.25,0,0,0,0,0
5.355,11.875,0,0,0,0,0
5.356,11.563,0,0,0,0,0
5.357,11.25,0,0,0,0,0
5.358,10.938,0,0,0,0,0
5.359,10.625,0,0,0,0,0
5.36,11.563,0,0,0,0,0
5.361,11.875,0,0,0,0,0
5.362,12.188,0,0,0,0,0
5.363,12.5,0,0,0,0,0
5.364,12.5,0,0,0,0,0
5.365,12.5,0,0,0,0,0
5.366,13.438,0,0,0,0,0
5.367,14.375,0,0,0,0,0
5.368,13.75,0,0,0,0,0
5.369,14.375,0,0,0,0,0
5.37,14.063,0,0,0,0,0
5.371,13.75,0,0,0,0,0
5.372,14.063,0,0,0,0,0
5.373,14.375,0,0,0,0,0
5.374,14.688,0,0,0,0,0
5.375,15,0,0,0,0,0
5.376,15,0,0,0,0,0
5.377,15,0,0,0,0,0
5.378,15.313,0,0,0,0,0
5.379,15,0,0,0,0,0
5.38,15.313,0,0,0,0,0
5.381,15,0,0,0,0,0
5.382,15,0,0,0,0,0
5.383,15,0,0,0,0,0
5.384,14.688,0,0,0,0,0
5.385,15,0,0,0,0,0
5.386,15,0,0,0,0,0
5.387,15,0,0,0,0,0
5.388,15,0,0,0,0,0
5.389,15.625,0,0,0,0,0
5.39,15.938,0,0,0,0,0
5.391,16.875,0,0,0,0,0
5.392,16.25,0,0,0,0,0
5.393,16.875,0,0,0,0,0
5.394,16.875,0,0,0,0,0
5.395,17.5,0,0,0,0,0
5.396,17.188,0,0,0,0,0
5.397,16.875,0,0,0,0,0
5.398,17.813,0,0,0,0,0
5.399,18.125,0,0,0,0,0
5.4,18.75,0,0,0,0,0
5.401,18.75,0,0,0,0,0
5.402,18.75,0,0,0,0,0
5.403,18.75,0,0,0,0,0
5.404,19.063,0,0,0,0,0
5.405,18.75,0,0,0,0,0
5.406,19.375,0,0,0,0,0
5.407,20.625,0,0,0,0,0
5.408,20.625,0,0,0,0,0
5.409,20.625,0,0,0,0,0
5.41,20.313,0,0,0,0,0
5.411,20.625,0,0,0,0,0
5.412,20.938,0,0,0,0,0
5.413,21.25,0,0,0,0,0
5.414,21.25,0,0,0,0,0
5.415,21.25,0,0,0,0,0
5.416,20.625,0,0,0,0,0
5.417,20.625,0,0,0,0,0
5.418,21.25,0,0,0,0,0
5.419,21.875,0,0,0,0,0
5.42,22.188,0,0,0,0,0
5.421,23.125,0,0,0,0,0
5.422,23.125,0,0,0,0,0
5.423,23.125,0,0,0,0,0
5.424,23.438,0,0,0,1,0
5.425,22.5,0,0,0,0,0
5.426,22.813,0,0,0,0,0
5.427,23.125,0,0,0,0,0
5.428,22.5,0,0,0,0,0
5.429,22.5,0,0,0,0,0
5.43,22.5,0,0,0,0,0
5.431,22.5,0,0,0,0,0
5.432,22.5,0,0,0,0,0
5.433,22.5,0,0,0,0,0
5.434,21.25,0,0,0,0,0
5.435,21.25,0,0,0,0,0
5.436,21.563,0,0,0,0,0
5.437,21.875,0,0,0,0,0
5.438,21.875,0,0,0,0,0
5.439,21.875,0,0,0,0,0
5.44,22.188,0,0,0,0,0
5.441,22.5,0,0,0,0,0
5.442,22.5,0,0,0,0,0
5.443,22.5,0,0,0,0,0
5.444,22.5,0,0,0,0,0
