0,-5.3125,0,0,0,0,0
0.001,-5,0,0,0,0,0
0.002,-4.6875,0,0,0,0,0
0.003,-4.375,0,0,0,0,0
0.004,-4.6875,0,0,0,0,0
0.005,-5,0,0,0,0,0
0.006,-5,0,0,0,0,0
0.007,-5,0,0,0,0,0
0.008,-5,0,0,0,0,0
0.009,-5,0,0,0,0,0
0.01,-4.6875,0,0,0,0,0
0.011,-4.375,0,0,0,0,0
0.012,-4.375,0,0,0,0,0
0.013,-4.375,0,0,0,0,0
0.014,-4.6875,0,0,0,0,0
0.015,-5,0,0,0,0,0
0.016,-4.6875,0,0,0,0,0
0.017,-4.375,0,0,0,0,0
0.018,-4.375,0,0,0,0,0
0.019,-4.375,0,0,0,0,0
0.02,-4.6875,0,0,0,0,0
0.021,-5,0,0,0,0,0
0.022,-5,0,0,0,0,0
0.023,-5,0,0,0,0,0
0.024,-5.3125,0,0,0,0,0
0.025,-5.625,0,0,0,0,0
0.026,-5.3125,0,0,0,0,0
0.027,-5,0,0,0,0,0
0.028,-5,0,0,0,0,0
0.029,-5,0,0,0,0,0
0.03,-5.3125,0,0,0,0,0
0.031,-5.625,0,0,0,0,0
0.032,-5.9375,0,0,0,0,0
0.033,-6.25,0,0,0,0,0
0.034,-6.5625,0,0,0,0,0
0.035,-6.875,0,0,0,0,0
0.036,-7.1875,0,0,0,0,0
0.037,-7.5,0,0,0,0,0
0.038,-6.875,0,0,0,0,0
0.039,-6.25,0,0,0,0,0
0.04,-5.9375,0,0,0,0,0
0.041,-5.625,0,0,0,0,0
0.042,-5.9375,0,0,0,0,0
0.043,-6.25,0,0,0,0,0
0.044,-6.5625,0,0,0,0,0
0.045,-6.875,0,0,0,0,0
0.046,-6.875,0,0,0,0,0
0.047,-6.875,0,0,0,0,0
0.048,-6.875,0,0,0,0,0
0.049,-6.875,0,0,0,0,0
0.05,-6.5625,0,0,0,0,0
0.051,-6.25,0,0,0,0,0
0.052,-6.25,0,0,0,0,0
0.053,-6.25,0,0,0,0,0
0.054,-6.25,0,0,0,0,0
0.055,-6.25,0,0,0,0,0
0.056,-6.25,0,0,0,0,0
0.057,-6.25,0,0,0,0,0
0.058,-5.625,0,0,0,0,0
0.059,-5,0,0,0,0,0
0.06,-5,0,0,0,0,0
0.061,-5,0,0,0,0,0
0.062,-5.625,0,0,0,0,0
0.063,-6.25,0,0,0,0,0
0.064,-5.9375,0,0,0,0,0
0.065,-5.625,0,0,0,0,0
0.066,-5.9375,0,0,0,0,0
0.067,-6.25,0,0,0,0,0
0.068,-5.9375,0,0,0,0,0
0.069,-5.625,0,0,0,0,0
0.07,-5.9375,0,0,0,0,0
0.071,-6.25,0,0,0,0,0
0.072,-6.25,0,0,0,0,0
0.073,-6.25,0,0,0,0,0
0.074,-6.5625,0,0,0,0,0
0.075,-6.875,0,0,0,0,0
0.076,-6.5625,0,0,0,0,0
0.077,-6.25,0,0,0,0,0
0.078,-6.5625,0,0,0,0,0
0.079,-6.875,0,0,0,0,0
0.08,-6.5625,0,0,0,0,0
0.081,-6.25,0,0,0,0,0
0.082,-6.25,0,0,0,0,0
0.083,-6.25,0,0,0,0,0
0.084,-6.5625,0,0,0,0,0
0.085,-6.875,0,0,0,0,0
0.086,-6.875,0,0,0,0,0
0.087,-6.875,0,0,0,0,0
0.088,-7.1875,0,0,0,0,0
0.089,-7.5,0,0,0,0,0
0.09,-7.1875,0,0,0,0,0
0.091,-6.875,0,0,0,0,0
0.092,-6.5625,0,0,0,0,0
0.093,-6.25,0,0,0,0,0
0.094,-6.25,0,0,0,0,0
0.095,-6.25,0,0,0,0,0
0.096,-6.5625,0,0,0,0,0
0.097,-6.875,0,0,0,0,0
0.098,-6.875,0,0,0,0,0
0.099,-6.875,0,0,0,0,0
0.1,-6.5625,0,0,0,0,0
0.101,-6.25,0,0,0,0,0
0.102,-6.5625,0,0,0,0,0
0.103,-6.875,0,0,0,0,0
0.104,-6.5625,0,0,0,0,0
0.105,-6.25,0,0,0,0,0
0.106,-6.25,0,0,0,0,0
0.107,-6.25,0,0,0,0,0
0.108,-6.25,0,0,0,0,0
0.109,-6.25,0,0,0,0,0
0.11,-6.25,0,0,0,0,0
0.111,-6.25,0,0,0,0,0
0.112,-6.5625,0,0,0,0,0
0.113,-6.875,0,0,0,0,0
0.114,-6.875,0,0,0,0,0
0.115,-6.875,0,0,0,0,0
0.116,-7.1875,0,0,0,0,0
0.117,-7.5,0,0,0,0,0
0.118,-7.5,0,0,0,0,0
0.119,-7.5,0,0,0,0,0
0.12,-7.8125,0,0,0,0,0
0.121,-8.125,0,0,0,0,0
0.122,-8.125,0,0,0,0,0
0.123,-8.125,0,0,0,0,0
0.124,-7.8125,0,0,0,0,0
0.125,-7.5,0,0,0,0,0
0.126,-7.5,0,0,0,0,0
0.127,-7.5,0,0,0,0,0
0.128,-7.5,0,0,0,0,0
0.129,-7.5,0,0,0,0,0
0.13,-7.8125,0,0,0,0,0
0.131,-8.125,0,0,0,0,0
0.132,-7.8125,0,0,0,0,0
0.133,-7.5,0,0,0,0,0
0.134,-7.8125,0,0,0,0,0
0.135,-8.125,0,0,0,0,0
0.136,-8.125,0,0,0,0,0
0.137,-8.125,0,0,0,0,0
0.138,-7.8125,0,0,0,0,0
0.139,-7.5,0,0,0,0,0
0.14,-7.8125,0,0,0,0,0
0.141,-8.125,0,0,0,0,0
0.142,-8.4375,0,0,0,0,0
0.143,-8.75,0,0,0,0,0
0.144,-9.0625,0,0,0,0,0
0.145,-9.375,0,0,0,0,0
0.146,-9.0625,0,0,0,0,0
0.147,-8.75,0,0,0,0,0
0.148,-8.4375,0,0,0,0,0
0.149,-8.125,0,0,0,0,0
0.15,-8.125,0,0,0,0,0
0.151,-8.125,0,0,0,0,0
0.152,-7.8125,0,0,0,0,0
0.153,-7.5,0,0,0,0,0
0.154,-7.5,0,0,0,0,0
0.155,-7.5,0,0,0,0,0
0.156,-7.8125,0,0,0,0,0
0.157,-8.125,0,0,0,0,0
0.158,-8.4375,0,0,0,0,0
0.159,-8.75,0,0,0,0,0
0.16,-8.4375,0,0,0,0,0
0.161,-8.125,0,0,0,0,0
0.162,-8.125,0,0,0,0,0
0.163,-8.125,0,0,0,1,0
0.164,-8.4375,0,0,0,0,0
0.165,-8.75,0,0,0,0,0
0.166,-8.75,0,0,0,0,0
0.167,-8.75,0,0,0,0,0
0.168,-8.75,0,0,0,0,0
0.169,-8.75,0,0,0,0,0
0.17,-9.0625,0,0,0,0,0
0.171,-9.375,0,0,0,0,0
0.172,-9.375,0,0,0,0,0
0.173,-9.375,0,0,0,0,0
0.174,-9.0625,0,0,0,0,0
0.175,-8.75,0,0,0,0,0
0.176,-8.75,0,0,0,0,0
0.177,-8.75,0,0,0,0,0
0.178,-8.125,0,0,0,0,0
0.179,-7.5,0,0,0,0,0
0.18,-6.875,0,0,0,0,0
0.181,-6.25,0,0,0,0,0
0.182,-6.5625,0,0,0,0,0
0.183,-6.875,0,0,0,0,0
0.184,-7.1875,0,0,0,0,0
0.185,-7.5,0,0,0,0,0
0.186,-6.875,0,0,0,0,0
0.187,-6.25,0,0,0,0,0
0.188,-5.9375,0,0,0,0,0
0.189,-5.625,0,0,0,0,0
0.19,-5.3125,0,0,0,0,0
0.191,-5,0,0,0,0,0
0.192,-5,0,0,0,0,0
0.193,-5,0,0,0,0,0
0.194,-5,0,0,0,0,0
0.195,-5,0,0,0,0,0
0.196,-5,0,0,0,0,0
0.197,-5,0,0,0,0,0
0.198,-4.375,0,0,0,0,0
0.199,-3.75,0,0,0,0,0
0.2,-3.4375,0,0,0,0,0
0.201,-3.125,0,0,0,0,0
0.202,-3.125,0,0,0,0,0
0.203,-3.125,0,0,0,0,0
0.204,-2.8125,0,0,0,0,0
0.205,-2.5,0,0,0,0,0
0.206,-1.875,0,0,0,0,0
0.207,-1.25,0,0,0,0,0
0.208,-0.625,0,0,0,0,0
0.209,0,0,0,0,0,0
0.21,0.625,0,0,0,0,0
0.211,1.25,0,0,0,0,0
0.212,1.875,0,0,0,0,0
0.213,2.5,0,0,0,0,0
0.214,2.8125,0,0,0,0,0
0.215,3.125,0,0,0,0,0
0.216,2.8125,0,0,0,0,0
0.217,2.5,0,0,0,0,0
0.218,3.125,0,0,0,0,0
0.219,3.75,0,0,0,0,0
0.22,4.0625,0,0,0,0,0
0.221,4.375,0,0,0,0,0
0.222,4.375,0,0,0,0,0
0.223,4.375,0,0,0,0,0
0.224,4.6875,0,0,0,0,0
0.225,5,0,0,0,0,0
0.226,5,0,0,0,0,0
0.227,5,0,0,0,0,0
0.228,5.3125,0,0,0,0,0
0.229,5.625,0,0,0,0,0
0.23,5.625,0,0,0,0,0
0.231,5.625,0,0,0,0,0
0.232,5.625,0,0,0,0,0
0.233,5.625,0,0,0,0,0
0.234,5.9375,0,0,0,0,0
0.235,6.25,0,0,0,0,0
0.236,6.25,0,0,0,0,0
0.237,6.25,0,0,0,0,0
0.238,6.5625,0,0,0,0,0
0.239,6.875,0,0,0,0,0
0.24,6.5625,0,0,0,0,0
0.241,6.25,0,0,0,0,0
0.242,6.25,0,0,0,0,0
0.243,6.25,0,0,0,0,0
0.244,6.5625,0,0,0,0,0
0.245,6.875,0,0,0,0,0
0.246,6.875,0,0,0,0,0
0.247,6.875,0,0,0,0,0
0.248,6.875,0,0,0,0,0
0.249,6.875,0,0,0,0,0
0.25,6.875,0,0,0,0,0
0.251,6.875,0,0,0,0,0
0.252,6.875,0,0,0,0,0
0.253,6.875,0,0,0,0,0
0.254,6.5625,0,0,0,0,0
0.255,6.25,0,0,0,0,0
0.256,5.9375,0,0,0,0,0
0.257,5.625,0,0,0,0,0
0.258,5.9375,0,0,0,0,0
0.259,6.25,0,0,0,0,0
0.26,6.25,0,0,0,0,0
0.261,6.25,0,0,0,0,0
0.262,6.25,0,0,0,0,0
0.263,6.25,0,0,0,0,0
0.264,6.25,0,0,0,0,0
0.265,6.25,0,0,0,0,0
0.266,6.875,0,0,0,0,0
0.267,7.5,0,0,0,0,0
0.268,7.1875,0,0,0,0,0
0.269,6.875,0,0,0,0,0
0.27,7.1875,0,0,0,0,0
0.271,7.5,0,0,0,0,0
0.272,7.5,0,0,0,0,0
0.273,7.5,0,0,0,0,0
0.274,7.5,0,0,0,0,0
0.275,7.5,0,0,0,0,0
0.276,6.875,0,0,0,0,0
0.277,6.25,0,0,0,0,0
0.278,6.5625,0,0,0,0,0
0.279,6.875,0,0,0,0,0
0.28,7.1875,0,0,0,0,0
0.281,7.5,0,0,0,0,0
0.282,7.5,0,0,0,0,0
0.283,7.5,0,0,0,0,0
0.284,7.1875,0,0,0,0,0
0.285,6.875,0,0,0,0,0
0.286,6.875,0,0,0,0,0
0.287,6.875,0,0,0,0,0
0.288,6.875,0,0,0,0,0
0.289,6.875,0,0,0,0,0
0.29,6.875,0,0,0,0,0
0.291,6.875,0,0,0,0,0
0.292,6.875,0,0,0,0,0
0.293,6.875,0,0,0,0,0
0.294,6.5625,0,0,0,0,0
0.295,6.25,0,0,0,0,0
0.296,6.25,0,0,0,0,0
0.297,6.25,0,0,0,0,0
0.298,6.25,0,0,0,0,0
0.299,6.25,0,0,0,0,0
0.3,6.25,0,0,0,0,0
0.301,6.25,0,0,0,0,0
0.302,6.5625,0,0,0,0,0
0.303,6.875,0,0,0,0,0
0.304,6.875,0,0,0,0,0
0.305,6.875,0,0,0,0,0
0.306,6.5625,0,0,0,0,0
0.307,6.25,0,0,0,0,0
0.308,6.25,0,0,0,0,0
0.309,6.25,0,0,0,0,0
0.31,6.5625,0,0,0,0,0
0.311,6.875,0,0,0,0,0
0.312,6.5625,0,0,0,0,0
0.313,6.25,0,0,0,0,0
0.314,6.25,0,0,0,0,0
0.315,6.25,0,0,0,0,0
0.316,6.25,0,0,0,0,0
0.317,6.25,0,0,0,0,0
0.318,6.25,0,0,0,0,0
0.319,6.25,0,0,0,0,0
0.32,6.5625,0,0,0,0,0
0.321,6.875,0,0,0,0,0
0.322,6.5625,0,0,0,0,0
0.323,6.25,0,0,0,0,0
0.324,6.25,0,0,0,0,0
0.325,6.25,0,0,0,0,0
0.326,6.25,0,0,0,0,0
0.327,6.25,0,0,0,0,0
0.328,6.5625,0,0,0,0,0
0.329,6.875,0,0,0,0,0
0.33,6.875,0,0,0,0,0
0.331,6.875,0,0,0,0,0
0.332,6.875,0,0,0,0,0
0.333,6.875,0,0,0,0,0
0.334,6.875,0,0,0,0,0
0.335,6.875,0,0,0,0,0
0.336,6.875,0,0,0,0,0
0.337,6.875,0,0,0,0,0
0.338,7.1875,0,0,0,0,0
0.339,7.5,0,0,0,0,0
0.34,7.5,0,0,0,0,0
0.341,7.5,0,0,0,0,0
0.342,7.1875,0,0,0,0,0
0.343,6.875,0,0,0,0,0
0.344,6.875,0,0,0,0,0
0.345,6.875,0,0,0,0,0
0.346,6.875,0,0,0,0,0
0.347,6.875,0,0,0,0,0
0.348,6.875,0,0,0,0,0
0.349,6.875,0,0,0,0,0
0.35,6.5625,0,0,0,0,0
0.351,6.25,0,0,0,0,0
0.352,6.5625,0,0,0,0,0
0.353,6.875,0,0,0,0,0
0.354,6.875,0,0,0,0,0
0.355,6.875,0,0,0,0,0
0.356,6.875,0,0,0,0,0
0.357,6.875,0,0,0,0,0
0.358,6.875,0,0,0,0,0
0.359,6.875,0,0,0,0,0
0.36,7.1875,0,0,0,0,0
0.361,7.5,0,0,0,0,0
0.362,7.1875,0,0,0,0,0
0.363,6.875,0,0,0,0,0
0.364,6.875,0,0,0,0,0
0.365,6.875,0,0,0,0,0
0.366,7.1875,0,0,0,0,0
0.367,7.5,0,0,0,0,0
0.368,7.5,0,0,0,0,0
0.369,7.5,0,0,0,0,0
0.37,7.1875,0,0,0,0,0
0.371,6.875,0,0,0,0,0
0.372,6.5625,0,0,0,0,0
0.373,6.25,0,0,0,0,0
0.374,6.5625,0,0,0,0,0
0.375,6.875,0,0,0,0,0
0.376,5.9375,0,0,0,0,0
0.377,5,0,0,0,0,0
0.378,5.3125,0,0,0,0,0
0.379,5.625,0,0,0,0,0
0.38,5.625,0,0,0,0,0
0.381,5.625,0,0,0,0,0
0.382,5.625,0,0,0,0,0
0.383,5.625,0,0,0,0,0
0.384,5.625,0,0,0,0,0
0.385,5.625,0,0,0,0,1
0.386,5.625,0,0,0,0,0
0.387,5.625,0,0,0,0,0
0.388,5.9375,0,0,0,0,0
0.389,6.25,0,0,0,0,0
0.39,6.25,0,0,0,0,0
0.391,6.25,0,0,0,0,0
0.392,6.25,0,0,0,0,0
0.393,6.25,0,0,0,0,0
0.394,6.5625,0,0,0,0,0
0.395,6.25,0,0,0,0,0
0.396,5.3125,0,0,0,0,0
0.397,5,0,0,0,0,0
0.398,5.625,0,0,0,0,0
0.399,5.625,0,0,0,0,0
0.4,5.3125,0,0,0,0,0
0.401,5,0,0,0,0,0
0.402,5,0,0,0,0,0
0.403,5,0,0,0,0,0
0.404,5.3125,0,0,0,0,0
0.405,5.625,0,0,0,0,0
0.406,5.625,0,0,0,0,0
0.407,5.625,0,0,0,0,0
0.408,5.3125,0,0,0,0,0
0.409,5,0,0,0,0,0
0.41,5,0,0,0,0,0
0.411,5,0,0,0,0,0
0.412,5.3125,0,0,0,0,0
0.413,5.625,0,0,0,0,0
0.414,5.3125,0,0,0,0,0
0.415,5,0,0,0,0,0
0.416,5.3125,0,0,0,0,0
0.417,5.625,0,0,0,0,0
0.418,5.3125,0,0,0,0,0
0.419,5,0,0,0,0,0
0.42,5.3125,0,0,0,0,0
0.421,5.625,0,0,0,0,0
0.422,5.3125,0,0,0,0,0
0.423,4.375,0,0,0,0,0
0.424,4.6875,0,0,0,0,0
0.425,4.375,0,0,0,0,0
0.426,4.375,0,0,0,0,0
0.427,4.375,0,0,0,0,0
0.428,4.6875,0,0,0,0,0
0.429,5,0,0,0,0,0
0.43,5,0,0,0,0,0
0.431,5,0,0,0,0,0
0.432,5,0,0,0,0,0
0.433,5,0,0,0,0,0
0.434,4.6875,0,0,0,0,0
0.435,5,0,0,0,0,0
0.436,4.375,0,0,0,0,0
0.437,4.375,0,0,0,0,0
0.438,4.0625,0,0,0,0,0
0.439,4.375,0,0,0,0,0
0.44,4.375,0,0,0,0,0
0.441,4.375,0,0,0,0,0
0.442,4.0625,0,0,0,0,0
0.443,4.375,0,0,0,0,0
0.444,4.375,0,0,0,0,0
0.445,4.375,0,0,0,0,0
0.446,4.6875,0,0,0,0,0
0.447,5,0,0,0,0,0
0.448,5,0,0,0,0,0
0.449,5,0,0,0,0,0
0.45,4.375,0,0,0,0,0
0.451,4.375,0,0,0,0,0
0.452,4.375,0,0,0,0,0
0.453,5,0,0,0,0,0
0.454,5.3125,0,0,0,0,0
0.455,5.625,0,0,0,0,0
0.456,5,0,0,0,0,0
0.457,5.625,0,0,0,0,0
0.458,5.3125,0,0,0,0,0
0.459,5,0,0,0,0,0
0.46,5,0,0,0,0,0
0.461,5,0,0,0,0,0
0.462,5,0,0,0,0,0
0.463,5,0,0,0,0,0
0.464,5,0,0,0,0,0
0.465,5,0,0,0,0,0
0.466,5,0,0,0,0,0
0.467,5,0,0,0,0,0
0.468,4.375,0,0,0,0,0
0.469,4.375,0,0,0,0,0
0.47,5,0,0,0,0,0
0.471,5,0,0,0,0,0
0.472,4.6875,0,0,0,0,0
0.473,4.375,0,0,0,0,0
0.474,4.375,0,0,0,0,0
0.475,4.375,0,0,0,0,0
0.476,4.0625,0,0,0,0,0
0.477,4.375,0,0,0,0,0
0.478,4.0625,0,0,0,0,0
0.479,3.75,0,0,0,0,0
0.48,4.0625,0,0,0,0,0
0.481,3.75,0,0,0,0,0
0.482,3.4375,0,0,0,0,0
0.483,3.125,0,0,0,0,0
0.484,3.4375,0,0,0,0,0
0.485,3.75,0,0,0,0,0
0.486,4.0625,0,0,0,0,0
0.487,4.375,0,0,0,0,0
0.488,4.0625,0,0,0,0,0
0.489,4.375,0,0,0,0,0
0.49,3.75,0,0,0,0,0
0.491,3.75,0,0,0,0,0
0.492,3.75,0,0,0,0,0
0.493,4.375,0,0,0,0,0
0.494,4.0625,0,0,0,0,0
0.495,4.375,0,0,0,0,0
0.496,4.375,0,0,0,0,0
0.497,4.375,0,0,0,0,0
0.498,4.375,0,0,0,0,0
0.499,3.75,0,0,0,0,0
0.5,3.75,0,0,0,0,0
0.501,4.375,0,0,0,0,0
0.502,4.0625,0,0,0,0,0
0.503,3.75,0,0,0,0,0
0.504,3.75,0,0,0,0,0
0.505,3.75,0,0,0,0,0
0.506,4.375,0,0,0,0,0
0.507,4.375,0,0,0,0,0
0.508,4.0625,0,0,0,0,0
0.509,4.375,0,0,0,0,0
0.51,4.0625,0,0,0,0,0
0.511,3.75,0,0,0,0,0
0.512,4.0625,0,0,0,0,0
0.513,4.375,0,0,0,0,0
0.514,4.375,0,0,0,0,0
0.515,4.375,0,0,0,0,0
0.516,4.0625,0,0,0,0,0
0.517,3.75,0,0,0,0,0
0.518,3.75,0,0,0,0,0
0.519,3.75,0,0,0,0,0
0.52,3.75,0,0,0,0,0
0.521,3.75,0,0,0,0,0
0.522,3.75,0,0,0,0,0
0.523,3.75,0,0,0,0,0
0.524,3.4375,0,0,0,0,0
0.525,3.125,0,0,0,0,0
0.526,3.125,0,0,0,0,0
0.527,3.125,0,0,0,0,0
0.528,3.125,0,0,0,0,0
0.529,3.125,0,0,0,0,0
0.53,2.8125,0,0,0,0,0
0.531,2.5,0,0,0,0,0
0.532,3.75,0,0,0,0,0
0.533,3.75,0,0,0,0,0
0.534,3.4375,0,0,0,0,0
0.535,3.125,0,0,0,0,0
0.536,2.8125,0,0,0,0,0
0.537,2.5,0,0,0,0,0
0.538,3.125,0,0,0,0,0
0.539,3.125,0,0,0,0,0
0.54,3.4375,0,0,0,0,0
0.541,3.75,0,0,0,0,0
0.542,3.75,0,0,0,0,0
0.543,3.75,0,0,0,0,0
0.544,3.4375,0,0,0,0,0
0.545,3.75,0,0,0,0,0
0.546,4.0625,0,0,0,0,0
0.547,4.375,0,0,0,0,0
0.548,4.0625,0,0,0,0,0
0.549,4.375,0,0,0,0,0
0.55,4.0625,0,0,0,0,0
0.551,3.75,0,0,0,0,0
0.552,3.75,0,0,0,0,0
0.553,3.75,0,0,0,0,0
0.554,4.0625,0,0,0,0,0
0.555,3.75,0,0,0,0,0
0.556,3.4375,0,0,0,0,0
0.557,3.125,0,0,0,0,0
0.558,3.75,0,0,0,0,0
0.559,3.75,0,0,0,0,0
0.56,4.0625,0,0,0,0,0
0.561,4.375,0,0,0,0,0
0.562,3.4375,0,0,0,0,0
0.563,3.125,0,0,0,0,0
0.564,3.125,0,0,0,0,0
0.565,3.125,0,0,0,0,0
0.566,3.125,0,0,0,0,0
0.567,3.75,0,0,0,0,0
0.568,3.125,0,0,0,0,0
0.569,3.125,0,0,0,0,0
0.57,2.8125,0,0,0,0,0
0.571,2.5,0,0,0,0,0
0.572,2.5,0,0,0,0,0
0.573,2.5,0,0,0,0,0
0.574,2.5,0,0,0,0,0
0.575,2.5,0,0,0,0,0
0.576,2.8125,0,0,0,0,0
0.577,2.5,0,0,0,0,0
0.578,2.5,0,0,0,0,0
0.579,2.5,0,0,0,0,0
0.58,2.8125,0,0,0,0,0
0.581,3.125,0,0,0,0,0
0.582,3.125,0,0,0,0,0
0.583,2.5,0,0,0,0,0
0.584,2.5,0,0,0,0,0
0.585,3.125,0,0,0,0,0
0.586,3.125,0,0,0,0,0
0.587,2.5,0,0,0,0,0
0.588,3.125,0,0,0,0,0
0.589,3.125,0,0,0,0,0
0.59,3.4375,0,0,0,0,0
0.591,3.125,0,0,0,0,0
0.592,3.125,0,0,0,0,0
0.593,2.5,0,0,0,0,0
0.594,2.8125,0,0,0,0,0
0.595,3.125,0,0,0,0,0
0.596,1.875,0,0,0,0,0
0.597,1.875,0,0,0,0,0
0.598,2.1875,0,0,0,0,0
0.599,2.5,0,0,0,0,0
0.6,2.5,0,0,0,0,0
0.601,2.5,0,0,0,0,0
0.602,1.875,0,0,0,0,0
0.603,2.5,0,0,0,0,0
0.604,2.5,0,0,0,0,0
0.605,2.5,0,0,0,0,0
0.606,3.75,0,0,0,0,0
0.607,3.75,0,0,0,0,0
0.608,3.4375,0,0,0,0,0
0.609,3.125,0,0,0,0,0
0.61,2.8125,0,0,0,0,0
0.611,2.5,0,0,0,0,0
0.612,2.8125,0,0,0,0,0
0.613,3.125,0,0,0,0,0
0.614,2.8125,0,0,0,0,0
0.615,1.875,0,0,0,0,0
0.616,2.1875,0,0,0,0,0
0.617,1.875,0,0,0,0,0
0.618,2.1875,0,0,0,0,0
0.619,2.5,0,0,0,0,0
0.62,2.5,0,0,0,0,0
0.621,2.5,0,0,0,0,0
0.622,2.1875,0,0,0,0,0
0.623,1.875,0,0,0,0,0
0.624,1.875,0,0,0,0,0
0.625,1.875,0,0,0,0,0
0.626,1.875,0,0,0,0,0
0.627,1.875,0,0,0,0,0
0.628,1.875,0,0,0,0,0
0.629,1.875,0,0,0,0,0
0.63,1.875,0,0,0,0,0
0.631,1.875,0,0,0,0,0
0.632,1.5625,0,0,0,0,0
0.633,1.25,0,0,0,0,0
0.634,0.9375,0,0,0,0,0
0.635,1.25,0,0,0,0,0
0.636,0.9375,0,0,0,0,0
0.637,1.25,0,0,0,0,0
0.638,1.5625,0,0,0,0,0
0.639,1.25,0,0,0,0,0
0.64,1.25,0,0,0,0,0
0.641,1.25,0,0,0,0,0
0.642,1.5625,0,0,0,0,0
0.643,1.875,0,0,0,0,0
0.644,1.5625,0,0,0,0,0
0.645,1.25,0,0,0,0,0
0.646,1.25,0,0,0,0,0
0.647,1.25,0,0,0,0,0
0.648,1.5625,0,0,0,0,0
0.649,1.25,0,0,0,0,0
0.65,0.625,0,0,0,0,0
0.651,0.625,0,0,0,0,0
0.652,1.5625,0,0,0,0,0
0.653,1.875,0,0,0,0,0
0.654,2.1875,0,0,0,0,0
0.655,1.875,0,0,0,0,0
0.656,1.875,0,0,0,0,0
0.657,2.5,0,0,0,0,0
0.658,2.5,0,0,0,0,0
0.659,2.5,0,0,0,0,0
0.66,2.5,0,0,0,0,0
0.661,3.125,0,0,0,0,0
0.662,2.5,0,0,0,0,0
0.663,2.5,0,0,0,0,0
0.664,2.8125,0,0,0,0,0
0.665,3.125,0,0,0,0,0
0.666,4.0625,0,0,0,0,0
0.667,3.75,0,0,0,0,0
0.668,3.75,0,0,0,0,0
0.669,3.125,0,0,0,0,0
0.67,2.8125,0,0,0,0,0
0.671,2.5,0,0,0,0,0
0.672,2.5,0,0,0,0,0
0.673,2.5,0,0,0,0,0
0.674,2.5,0,0,0,0,0
0.675,2.5,0,0,0,0,0
0.676,2.1875,0,0,0,0,0
0.677,1.875,0,0,0,0,0
0.678,1.875,0,0,0,0,0
0.679,2.5,0,0,0,0,0
0.68,2.1875,0,0,0,0,0
0.681,2.5,0,0,0,0,0
0.682,2.8125,0,0,0,0,0
0.683,3.125,0,0,0,0,0
0.684,3.125,0,0,0,0,0
0.685,3.125,0,0,0,0,0
0.686,3.125,0,0,0,0,0
0.687,3.125,0,0,0,0,0
0.688,2.8125,0,0,0,0,0
0.689,3.125,0,0,0,0,0
0.69,3.125,0,0,0,0,0
0.691,3.125,0,0,0,0,0
0.692,2.8125,0,0,0,0,0
0.693,2.5,0,0,0,0,0
0.694,2.5,0,0,0,0,0
0.695,2.5,0,0,0,0,0
0.696,2.5,0,0,0,0,0
0.697,2.5,0,0,0,0,0
0.698,2.1875,0,0,0,0,0
0.699,1.875,0,0,0,0,0
0.7,2.5,0,0,0,0,0
0.701,2.5,0,0,0,0,0
0.702,2.5,0,0,0,0,0
0.703,2.5,0,0,0,0,0
0.704,2.5,0,0,0,0,0
0.705,2.5,0,0,0,0,0
0.706,2.8125,0,0,0,0,0
0.707,3.125,0,0,0,0,0
0.708,3.75,0,0,0,0,0
0.709,3.125,0,0,0,0,0
0.71,3.4375,0,0,0,0,0
0.711,3.75,0,0,0,0,0
0.712,3.75,0,0,0,0,0
0.713,3.75,0,0,0,0,0
0.714,3.75,0,0,0,0,0
0.715,3.125,0,0,0,0,0
0.716,3.125,0,0,0,0,0
0.717,3.125,0,0,0,0,0
0.718,3.125,0,0,0,0,0
0.719,3.125,0,0,0,0,0
0.72,3.4375,0,0,0,0,0
0.721,3.125,0,0,0,0,0
0.722,3.125,0,0,0,0,0
0.723,3.125,0,0,0,0,0
0.724,3.125,0,0,0,0,0
0.725,3.125,0,0,0,0,0
0.726,3.125,0,0,0,0,0
0.727,3.125,0,0,0,0,0
0.728,2.8125,0,0,0,0,0
0.729,2.5,0,0,0,0,0
0.73,1.875,0,0,0,0,0
0.731,1.25,0,0,0,0,0
0.732,1.25,0,0,0,0,0
0.733,1.25,0,0,0,0,0
0.734,1.5625,0,0,0,0,0
0.735,1.25,0,0,0,0,0
0.736,0.9375,0,0,0,0,0
0.737,1.25,0,0,0,0,0
0.738,0.625,0,0,0,0,0
0.739,0.625,0,0,0,0,0
0.74,0.625,0,0,0,0,0
0.741,0.625,0,0,0,0,0
0.742,0,0,0,0,0,0
0.743,0.625,0,0,0,0,0
0.744,0.625,0,0,0,0,0
0.745,0.625,0,0,0,0,0
0.746,0.3125,0,0,0,0,0
0.747,0,0,0,0,0,0
0.748,0,0,0,0,0,0
0.749,0,0,0,0,0,0
0.75,0.3125,0,0,0,0,0
0.751,0,0,0,0,0,0
0.752,0.3125,0,0,0,0,0
0.753,0.625,0,0,0,0,0
0.754,0.9375,0,0,0,0,0
0.755,1.25,0,0,0,0,0
0.756,0.625,0,0,0,0,0
0.757,0.625,0,0,0,0,0
0.758,0.625,0,0,0,0,0
0.759,1.25,0,0,0,0,0
0.76,0.625,0,0,0,0,0
0.761,1.25,0,0,0,0,0
0.762,0.625,0,0,0,0,0
0.763,0.625,0,0,0,0,0
0.764,0.625,0,0,0,0,0
0.765,0,0,0,0,0,0
0.766,0.3125,0,0,0,0,0
0.767,0,0,0,0,0,0
0.768,-0.625,0,0,0,0,0
0.769,0,0,0,0,0,0
0.77,-0.625,0,0,0,0,0
0.771,-0.625,0,0,0,0,0
0.772,-0.625,0,0,0,0,0
0.773,-0.625,0,0,0,0,0
0.774,-0.3125,0,0,0,0,0
0.775,-0.625,0,0,0,0,0
0.776,-0.9375,0,0,0,0,0
0.777,-1.25,0,0,0,0,0
0.778,-1.25,0,0,0,0,0
0.779,-1.25,0,0,0,0,0
0.78,-0.9375,0,0,0,0,0
0.781,-0.625,0,0,0,0,0
0.782,-0.625,0,0,0,0,0
0.783,-1.25,0,0,0,0,0
0.784,-0.9375,0,0,0,0,0
0.785,-1.25,0,0,0,0,0
0.786,-1.5625,0,0,0,0,0
0.787,-1.875,0,0,0,0,0
0.788,-1.875,0,0,0,0,0
0.789,-2.5,0,0,0,0,0
0.79,-2.8125,0,0,0,0,0
0.791,-3.125,0,0,0,0,0
0.792,-2.1875,0,0,0,0,0
0.793,-2.5,0,0,0,0,0
0.794,-1.875,0,0,0,0,0
0.795,-1.875,0,0,0,0,0
0.796,-2.8125,0,0,0,0,0
0.797,-2.5,0,0,0,0,0
0.798,-2.1875,0,0,0,0,0
0.799,-1.875,0,0,0,0,0
0.8,-2.1875,0,0,0,0,0
0.801,-1.25,0,0,0,0,0
0.802,-1.25,0,0,0,0,0
0.803,-1.25,0,0,0,0,0
0.804,-1.25,0,0,0,0,0
0.805,-1.875,0,0,0,0,0
0.806,-1.875,0,0,0,0,0
0.807,-1.875,0,0,0,0,0
0.808,-0.9375,0,0,0,0,0
0.809,-1.25,0,0,0,0,0
0.81,-1.25,0,0,0,0,0
0.811,-1.25,0,0,0,0,0
0.812,-0.9375,0,0,0,0,0
0.813,-0.625,0,0,0,0,0
0.814,-0.625,0,0,0,0,0
0.815,-0.625,0,0,0,0,0
0.816,-0.9375,0,0,0,0,0
0.817,-0.625,0,0,0,0,0
0.818,-0.625,0,0,0,0,0
0.819,-1.25,0,0,0,0,0
0.82,-1.5625,0,0,0,0,0
0.821,-1.875,0,0,0,0,0
0.822,-2.1875,0,0,0,0,0
0.823,-2.5,0,0,0,0,0
0.824,-3.125,0,0,0,0,0
0.825,-3.75,0,0,0,0,0
0.826,-3.125,0,0,0,0,0
0.827,-3.125,0,0,0,0,0
0.828,-2.8125,0,0,0,0,0
0.829,-2.5,0,0,0,0,0
0.83,-2.5,0,0,0,0,0
0.831,-2.5,0,0,0,0,0
0.832,-3.125,0,0,0,0,0
0.833,-2.5,0,0,0,0,0
0.834,-2.1875,0,0,0,0,0
0.835,-1.875,0,0,0,0,0
0.836,-1.875,0,0,0,0,0
0.837,-1.875,0,0,0,0,0
0.838,-1.25,0,0,0,0,0
0.839,-1.25,0,0,0,0,0
0.84,-0.625,0,0,0,0,0
0.841,0,0,0,0,0,0
0.842,-0.625,0,0,0,0,0
0.843,-0.625,0,0,0,0,0
0.844,-0.3125,0,0,0,0,0
0.845,-0.625,0,0,0,0,0
0.846,-0.625,1,0,0,0,0
0.847,-0.625,0,0,0,0,0
0.848,0.3125,0,0,0,0,0
0.849,0.625,0,0,0,0,0
0.85,0.9375,0,0,0,0,0
0.851,0.625,0,0,0,0,0
0.852,1.875,0,0,0,0,0
0.853,3.125,0,0,0,0,0
0.854,3.75,0,0,0,0,0
0.855,3.75,0,0,0,0,0
0.856,4.6875,0,0,0,0,0
0.857,5,0,0,0,0,0
0.858,6.5625,0,0,0,0,0
0.859,7.5,0,0,0,0,0
0.86,9.375,0,0,0,0,0
0.861,10.625,0,0,0,0,0
0.862,11.875,0,0,0,0,0
0.863,13.75,0,0,0,0,0
0.864,16.563,0,0,0,0,0
0.865,18.75,0,0,0,0,0
0.866,21.25,0,0,0,0,0
0.867,24.375,0,0,0,0,0
0.868,27.188,0,0,0,0,0
0.869,29.375,0,0,0,0,0
0.87,32.813,0,0,0,0,0
0.871,35.625,0,0,0,0,0
0.872,40,0,0,0,0,0
0.873,43.75,0,0,0,0,0
0.874,48.125,0,0,0,0,0
0.875,51.875,0,0,0,0,0
0.876,55.938,0,0,0,0,0
0.877,59.375,0,0,0,0,0
0.878,63.438,0,0,0,0,0
0.879,67.5,0,0,0,0,0
0.88,71.25,0,0,0,0,0
0.881,74.375,0,0,0,0,0
0.882,78.438,0,0,0,0,0
0.883,81.25,0,0,0,0,0
0.884,84.063,0,0,0,0,0
0.885,85.625,0,0,0,0,0
0.886,87.188,0,0,0,0,0
0.887,87.5,0,1,0,0,0
0.888,88.125,0,0,0,0,0
0.889,88.75,0,0,0,0,0
0.89,89.688,0,0,0,0,0
0.891,89.375,0,0,0,0,0
0.892,89.063,0,0,0,0,0
0.893,85.625,0,0,0,0,0
0.894,81.875,0,0,0,0,0
0.895,76.25,0,0,0,0,0
0.896,67.188,0,0,0,0,0
0.897,58.125,0,0,0,0,0
0.898,51.25,0,0,0,0,0
0.899,46.25,0,0,0,0,0
0.9,40.625,0,0,0,0,0
0.901,35.625,0,0,0,0,0
0.902,28.75,0,0,0,0,0
0.903,20,0,0,0,0,0
0.904,11.25,0,0,0,0,0
0.905,3.125,0,0,0,0,0
0.906,-3.75,0,0,0,0,0
0.907,-8.75,0,0,0,0,0
0.908,-12.813,0,0,0,0,0
0.909,-16.25,0,0,0,0,0
0.91,-18.125,0,0,0,0,0
0.911,-18.75,0,0,0,0,0
0.912,-20,0,0,0,0,0
0.913,-20,0,0,0,0,0
0.914,-20.625,0,0,0,0,0
0.915,-20.625,0,0,0,0,0
0.916,-20.313,0,0,0,0,0
0.917,-19.375,0,0,0,0,0
0.918,-18.125,0,0,0,0,0
0.919,-16.875,0,0,0,0,0
0.92,-15.938,0,0,0,0,0
0.921,-15,0,0,0,0,0
0.922,-15,0,0,0,0,0
0.923,-13.75,0,0,0,0,0
0.924,-13.438,0,0,0,0,0
0.925,-12.5,0,0,0,0,0
0.926,-11.25,0,0,0,0,0
0.927,-11.25,0,0,0,0,0
0.928,-10.313,0,0,0,0,0
0.929,-9.375,0,0,0,0,0
0.93,-9.375,0,0,0,0,0
0.931,-8.75,0,0,0,0,0
0.932,-8.125,0,0,0,0,0
0.933,-8.125,0,0,1,0,0
0.934,-8.4375,0,0,0,0,0
0.935,-8.125,0,0,0,0,0
0.936,-9.0625,0,0,0,0,0
0.937,-8.75,0,0,0,0,0
0.938,-8.125,0,0,0,0,0
0.939,-8.125,0,0,0,0,0
0.94,-7.8125,0,0,0,0,0
0.941,-7.5,0,0,0,0,0
0.942,-7.1875,0,0,0,0,0
0.943,-6.875,0,0,0,0,0
0.944,-7.8125,0,0,0,0,0
0.945,-7.5,0,0,0,0,0
0.946,-7.8125,0,0,0,0,0
0.947,-7.5,0,0,0,0,0
0.948,-7.1875,0,0,0,0,0
0.949,-6.875,0,0,0,0,0
0.95,-6.875,0,0,0,0,0
0.951,-6.875,0,0,0,0,0
0.952,-7.1875,0,0,0,0,0
0.953,-7.5,0,0,0,0,0
0.954,-7.5,0,0,0,0,0
0.955,-7.5,0,0,0,0,0
0.956,-7.8125,0,0,0,0,0
0.957,-8.125,0,0,0,0,0
0.958,-8.125,0,0,0,0,0
0.959,-8.125,0,0,0,0,0
0.96,-8.125,0,0,0,0,0
0.961,-8.125,0,0,0,0,0
0.962,-7.8125,0,0,0,0,0
0.963,-7.5,0,0,0,0,0
0.964,-7.5,0,0,0,0,0
0.965,-6.875,0,0,0,0,0
0.966,-6.875,0,0,0,0,0
0.967,-6.25,0,0,0,0,0
0.968,-6.25,0,0,0,0,0
0.969,-6.25,0,0,0,0,0
0.97,-6.5625,0,0,0,0,0
0.971,-6.875,0,0,0,0,0
0.972,-6.25,0,0,0,0,0
0.973,-6.25,0,0,0,0,0
0.974,-6.5625,0,0,0,0,0
0.975,-6.25,0,0,0,0,0
0.976,-6.25,0,0,0,0,0
0.977,-6.25,0,0,0,0,0
0.978,-5.9375,0,0,0,0,0
0.979,-5.625,0,0,0,0,0
0.98,-5.9375,0,0,0,0,0
0.981,-6.25,0,0,0,0,0
0.982,-7.5,0,0,0,0,0
0.983,-8.125,0,0,0,0,0
0.984,-8.125,0,0,0,0,0
0.985,-8.125,0,0,0,0,0
0.986,-8.75,0,0,0,0,0
0.987,-8.75,0,0,0,0,0
0.988,-8.4375,0,0,0,0,0
0.989,-8.125,0,0,0,0,0
0.99,-8.75,0,0,0,0,0
0.991,-8.75,0,0,0,0,0
0.992,-8.4375,0,0,0,0,0
0.993,-7.5,0,0,0,0,0
0.994,-7.5,0,0,0,0,0
0.995,-7.5,0,0,0,0,0
0.996,-7.8125,0,0,0,0,0
0.997,-7.5,0,0,0,0,0
0.998,-7.8125,0,0,0,0,0
0.999,-8.125,0,0,0,0,0
1,-7.8125,0,0,0,0,0
1.001,-7.5,0,0,0,0,0
1.002,-7.5,0,0,0,0,0
1.003,-7.5,0,0,0,0,0
1.004,-7.8125,0,0,0,0,0
1.005,-8.125,0,0,0,0,0
1.006,-7.8125,0,0,0,0,0
1.007,-7.5,0,0,0,0,0
1.008,-8.125,0,0,0,0,0
1.009,-8.125,0,0,0,0,0
1.01,-8.125,0,0,0,0,0
1.011,-8.125,0,0,0,0,0
1.012,-7.8125,0,0,0,0,0
1.013,-8.125,0,0,0,0,0
1.014,-8.125,0,0,0,0,0
1.015,-8.125,0,0,0,0,0
1.016,-7.8125,0,0,0,0,0
1.017,-7.5,0,0,0,0,0
1.018,-7.8125,0,0,0,0,0
1.019,-7.5,0,0,0,0,0
1.02,-7.5,0,0,0,0,0
1.021,-7.5,0,0,0,0,0
1.022,-7.5,0,0,0,0,0
1.023,-7.5,0,0,0,0,0
1.024,-7.8125,0,0,0,0,0
1.025,-7.5,0,0,0,0,0
1.026,-7.1875,0,0,0,0,0
1.027,-6.875,0,0,0,0,0
1.028,-6.875,0,0,0,0,0
1.029,-7.5,0,0,0,0,0
1.03,-6.875,0,0,0,0,0
1.031,-7.5,0,0,0,0,0
1.032,-6.875,0,0,0,0,0
1.033,-6.875,0,0,0,0,0
1.034,-7.1875,0,0,0,0,0
1.035,-8.125,0,0,0,0,0
1.036,-8.125,0,0,0,0,0
1.037,-8.125,0,0,0,0,0
1.038,-8.125,0,0,0,0,0
1.039,-8.125,0,0,0,0,0
1.04,-8.4375,0,0,0,0,0
1.041,-8.75,0,0,0,0,0
1.042,-8.125,0,0,0,0,0
1.043,-8.125,0,0,0,0,0
1.044,-8.4375,0,0,0,0,0
1.045,-8.75,0,0,0,0,0
1.046,-8.125,0,0,0,0,0
1.047,-7.5,0,0,0,0,0
1.048,-8.125,0,0,0,0,0
1.049,-8.125,0,0,0,0,0
1.05,-8.125,0,0,0,0,0
1.051,-8.125,0,0,0,0,0
1.052,-8.125,0,0,0,0,0
1.053,-8.125,0,0,0,0,0
1.054,-7.8125,0,0,0,0,0
1.055,-7.5,0,0,0,0,0
1.056,-8.125,0,0,0,0,0
1.057,-8.125,0,0,0,0,0
1.058,-8.125,0,0,0,0,0
1.059,-8.125,0,0,0,0,0
1.06,-8.125,0,0,0,0,0
1.061,-8.125,0,0,0,0,0
1.062,-8.125,0,0,0,0,0
1.063,-8.75,0,0,0,0,0
1.064,-8.4375,0,0,0,0,0
1.065,-8.75,0,0,0,0,0
1.066,-8.75,0,0,0,0,0
1.067,-8.75,0,0,0,0,0
1.068,-8.4375,0,0,0,0,0
1.069,-8.125,0,0,0,0,0
1.07,-8.125,0,0,0,0,0
1.071,-8.125,0,0,0,0,0
1.072,-8.125,0,0,0,0,0
1.073,-8.75,0,0,0,0,0
1.074,-8.75,0,0,0,0,0
1.075,-8.75,0,0,0,0,0
1.076,-9.375,0,0,0,0,0
1.077,-10,0,0,0,0,0
1.078,-9.6875,0,0,0,0,0
1.079,-9.375,0,0,0,0,0
1.08,-9.375,0,0,0,0,0
1.081,-9.375,0,0,0,0,0
1.082,-9.375,0,0,0,0,0
1.083,-9.375,0,0,0,0,0
1.084,-9.375,0,0,0,0,0
1.085,-9.375,0,0,0,0,0
1.086,-9.375,0,0,0,0,0
1.087,-9.375,0,0,0,0,0
1.088,-9.6875,0,0,0,0,0
1.089,-10,0,0,0,0,0
1.09,-10.313,0,0,0,0,0
1.091,-10.625,0,0,0,0,0
1.092,-10.625,0,0,0,0,0
1.093,-10.625,0,0,0,0,0
1.094,-10.313,0,0,0,0,0
1.095,-10,0,0,0,0,0
1.096,-10.313,0,0,0,0,0
1.097,-10,0,0,0,0,0
1.098,-9.6875,0,0,0,0,0
1.099,-9.375,0,0,0,0,0
1.1,-9.6875,0,0,0,0,0
1.101,-9.375,0,0,0,0,0
1.102,-10,0,0,0,0,0
1.103,-10,0,0,0,0,0
1.104,-10,0,0,0,0,0
1.105,-10,0,0,0,0,0
1.106,-10.313,0,0,0,0,0
1.107,-10.625,0,0,0,0,0
1.108,-10.313,0,0,0,0,0
1.109,-10.625,0,0,0,0,0
1.11,-10,0,0,0,0,0
1.111,-10,0,0,0,0,0
1.112,-9.6875,0,0,0,0,0
1.113,-10,0,0,0,0,0
1.114,-9.6875,0,0,0,0,0
1.115,-9.375,0,0,0,0,0
1.116,-10,0,0,0,0,0
1.117,-10,0,0,0,0,0
1.118,-10.938,0,0,0,0,0
1.119,-10.625,0,0,0,0,0
1.12,-10.625,0,0,0,0,0
1.121,-10.625,0,0,0,0,0
1.122,-10.313,0,0,0,0,0
1.123,-10,0,0,0,0,0
1.124,-10.938,0,0,0,0,0
1.125,-10.625,0,0,0,0,0
1.126,-10.313,0,0,0,0,0
1.127,-10,0,0,0,0,0
1.128,-10.625,0,0,0,0,0
1.129,-10.625,0,0,0,0,0
1.13,-10.313,0,0,0,0,0
1.131,-10.625,0,0,0,0,0
1.132,-10.625,0,0,0,0,0
1.133,-10,0,0,0,0,0
1.134,-10,0,0,0,0,0
1.135,-10,0,0,0,0,0
1.136,-10.625,0,0,0,0,0
1.137,-11.25,0,0,0,0,0
1.138,-11.25,0,0,0,0,0
1.139,-11.25,0,0,0,0,0
1.14,-11.25,0,0,0,0,0
1.141,-11.25,0,0,0,0,0
1.142,-11.25,0,0,0,0,0
1.143,-11.25,0,0,0,0,0
1.144,-11.563,0,0,0,0,0
1.145,-11.875,0,0,0,0,0
1.146,-11.875,0,0,0,0,0
1.147,-11.875,0,0,0,0,0
1.148,-11.563,0,0,0,0,0
1.149,-11.875,0,0,0,0,0
1.15,-12.188,0,0,0,0,0
1.151,-12.5,0,0,0,0,0
1.152,-12.813,0,0,0,0,0
1.153,-13.125,0,0,0,0,0
1.154,-13.125,0,0,0,0,0
1.155,-13.125,0,0,0,0,0
1.156,-12.813,0,0,0,0,0
1.157,-13.125,0,0,0,0,0
1.158,-12.5,0,0,0,0,0
1.159,-12.5,0,0,0,0,0
1.16,-12.188,0,0,0,0,0
1.161,-11.875,0,0,0,0,0
1.162,-12.813,0,0,0,0,0
1.163,-12.5,0,0,0,0,0
1.164,-12.5,0,0,0,0,0
1.165,-12.5,0,0,0,0,0
1.166,-12.188,0,0,0,0,0
1.167,-11.875,0,0,0,0,0
1.168,-12.5,0,0,0,0,0
1.169,-12.5,0,0,0,0,0
1.17,-12.5,0,0,0,0,0
1.171,-12.5,0,0,0,0,0
1.172,-12.5,0,0,0,0,0
1.173,-12.5,0,0,0,0,0
1.174,-12.188,0,0,0,0,0
1.175,-12.5,0,0,0,0,0
1.176,-13.438,0,0,0,0,0
1.177,-13.125,0,0,0,0,0
1.178,-13.125,0,0,0,0,0
1.179,-13.125,0,0,0,0,0
1.18,-13.125,0,0,0,0,0
1.181,-13.125,0,0,0,0,0
1.182,-13.125,0,0,0,0,0
1.183,-13.125,0,0,0,0,0
1.184,-13.438,0,0,0,0,0
1.185,-13.75,0,0,0,0,0
1.186,-13.438,0,0,0,0,0
1.187,-13.75,0,0,0,0,0
1.188,-14.063,0,0,0,0,0
1.189,-14.375,0,0,0,0,0
1.19,-14.375,0,0,0,0,0
1.191,-14.375,0,0,0,0,0
1.192,-14.375,0,0,0,0,0
1.193,-13.75,0,0,0,0,0
1.194,-14.375,0,0,0,0,0
1.195,-14.375,0,0,0,0,0
1.196,-14.063,0,0,0,0,0
1.197,-13.75,0,0,0,0,0
1.198,-13.438,0,0,0,0,0
1.199,-13.125,0,0,0,0,0
1.2,-12.5,0,0,0,1,0
1.201,-12.5,0,0,0,0,0
1.202,-12.813,0,0,0,0,0
1.203,-13.125,0,0,0,0,0
1.204,-13.125,0,0,0,0,0
1.205,-13.125,0,0,0,0,0
1.206,-13.125,0,0,0,0,0
1.207,-13.125,0,0,0,0,0
1.208,-12.813,0,0,0,0,0
1.209,-12.5,0,0,0,0,0
1.21,-12.813,0,0,0,0,0
1.211,-13.125,0,0,0,0,0
1.212,-12.188,0,0,0,0,0
1.213,-11.875,0,0,0,0,0
1.214,-11.875,0,0,0,0,0
1.215,-11.875,0,0,0,0,0
1.216,-12.5,0,0,0,0,0
1.217,-12.5,0,0,0,0,0
1.218,-12.188,0,0,0,0,0
1.219,-11.875,0,0,0,0,0
1.22,-11.563,0,0,0,0,0
1.221,-11.25,0,0,0,0,0
1.222,-11.563,0,0,0,0,0
1.223,-11.25,0,0,0,0,0
1.224,-11.25,0,0,0,0,0
1.225,-10.625,0,0,0,0,0
1.226,-9.6875,0,0,0,0,0
1.227,-9.375,0,0,0,0,0
1.228,-9.375,0,0,0,0,0
1.229,-9.375,0,0,0,0,0
1.23,-8.75,0,0,0,0,0
1.231,-8.75,0,0,0,0,0
1.232,-8.125,0,0,0,0,0
1.233,-8.125,0,0,0,0,0
1.234,-7.1875,0,0,0,0,0
1.235,-6.875,0,0,0,0,0
1.236,-7.1875,0,0,0,0,0
1.237,-6.875,0,0,0,0,0
1.238,-6.25,0,0,0,0,0
1.239,-6.25,0,0,0,0,0
1.24,-6.875,0,0,0,0,0
1.241,-6.25,0,0,0,0,0
1.242,-5.625,0,0,0,0,0
1.243,-5.625,0,0,0,0,0
1.244,-5.3125,0,0,0,0,0
1.245,-5,0,0,0,0,0
1.246,-5.3125,0,0,0,0,0
1.247,-5,0,0,0,0,0
1.248,-5,0,0,0,0,0
1.249,-5,0,0,0,0,0
1.25,-4.0625,0,0,0,0,0
1.251,-3.75,0,0,0,0,0
1.252,-2.8125,0,0,0,0,0
1.253,-2.5,0,0,0,0,0
1.254,-2.1875,0,0,0,0,0
1.255,-1.25,0,0,0,0,0
1.256,-1.5625,0,0,0,0,0
1.257,-1.875,0,0,0,0,0
1.258,-0.9375,0,0,0,0,0
1.259,-0.625,0,0,0,0,0
1.26,-0.625,0,0,0,0,0
1.261,0,0,0,0,0,0
1.262,-0.9375,0,0,0,0,0
1.263,-0.625,0,0,0,0,0
1.264,-0.3125,0,0,0,0,0
1.265,0,0,0,0,0,0
1.266,0,0,0,0,0,0
1.267,0.625,0,0,0,0,0
1.268,0.3125,0,0,0,0,0
1.269,0,0,0,0,0,0
1.27,0.3125,0,0,0,0,0
1.271,0.625,0,0,0,0,0
1.272,-0.3125,0,0,0,0,0
1.273,0,0,0,0,0,0
1.274,0,0,0,0,0,0
1.275,0,0,0,0,0,0
1.276,0.3125,0,0,0,0,0
1.277,0.625,0,0,0,0,0
1.278,0.9375,0,0,0,0,0
1.279,1.25,0,0,0,0,0
1.28,0.9375,0,0,0,0,0
1.281,0.625,0,0,0,0,0
1.282,0.9375,0,0,0,0,0
1.283,0.625,0,0,0,0,0
1.284,0.9375,0,0,0,0,0
1.285,1.25,0,0,0,0,0
1.286,1.25,0,0,0,0,0
1.287,1.25,0,0,0,0,0
1.288,2.1875,0,0,0,0,0
1.289,1.875,0,0,0,0,0
1.29,1.25,0,0,0,0,0
1.291,1.25,0,0,0,0,0
1.292,0.9375,0,0,0,0,0
1.293,0.625,0,0,0,0,0
1.294,1.25,0,0,0,0,0
1.295,0.625,0,0,0,0,0
1.296,1.25,0,0,0,0,0
1.297,1.25,0,0,0,0,0
1.298,1.25,0,0,0,0,0
1.299,1.25,0,0,0,0,0
1.3,1.875,0,0,0,0,0
1.301,1.875,0,0,0,0,0
1.302,1.5625,0,0,0,0,0
1.303,1.25,0,0,0,0,0
1.304,1.5625,0,0,0,0,0
1.305,1.875,0,0,0,0,0
1.306,1.5625,0,0,0,0,0
1.307,1.25,0,0,0,0,0
1.308,1.5625,0,0,0,0,0
1.309,1.875,0,0,0,0,0
1.31,1.875,0,0,0,0,0
1.311,1.25,0,0,0,0,0
1.312,1.25,0,0,0,0,0
1.313,1.25,0,0,0,0,0
1.314,1.5625,0,0,0,0,0
1.315,1.875,0,0,0,0,0
1.316,1.5625,0,0,0,0,0
1.317,1.25,0,0,0,0,0
1.318,1.875,0,0,0,0,0
1.319,1.875,0,0,0,0,0
1.32,1.875,0,0,0,0,0
1.321,1.875,0,0,0,0,0
1.322,1.875,0,0,0,0,0
1.323,1.875,0,0,0,0,0
1.324,1.25,0,0,0,0,0
1.325,1.875,0,0,0,0,0
1.326,2.1875,0,0,0,0,0
1.327,2.5,0,0,0,0,0
1.328,2.8125,0,0,0,0,0
1.329,2.5,0,0,0,0,0
1.33,2.8125,0,0,0,0,0
1.331,2.5,0,0,0,0,0
1.332,1.875,0,0,0,0,0
1.333,1.875,0,0,0,0,0
1.334,1.875,0,0,0,0,0
1.335,1.875,0,0,0,0,0
1.336,0.625,0,0,0,0,0
1.337,0.625,0,0,0,0,0
1.338,0.9375,0,0,0,0,0
1.339,1.25,0,0,0,0,0
1.34,0.9375,0,0,0,0,0
1.341,0.625,0,0,0,0,0
1.342,0.625,0,0,0,0,0
1.343,0.625,0,0,0,0,0
1.344,0.625,0,0,0,0,0
1.345,0,0,0,0,0,0
1.346,0.625,0,0,0,0,0
1.347,0.625,0,0,0,0,0
1.348,0.625,0,0,0,0,0
1.349,0.625,0,0,0,0,0
1.35,0.625,0,0,0,0,0
1.351,0.625,0,0,0,0,0
1.352,0.625,0,0,0,0,0
1.353,0.625,0,0,0,0,0
1.354,0.9375,0,0,0,0,0
1.355,1.25,0,0,0,0,0
1.356,1.5625,0,0,0,0,0
1.357,1.875,0,0,0,0,0
1.358,2.1875,0,0,0,0,0
1.359,2.5,0,0,0,0,0
1.36,1.5625,0,0,0,0,0
1.361,1.25,0,0,0,0,0
1.362,2.1875,0,0,0,0,0
1.363,2.5,0,0,0,0,0
1.364,1.875,0,0,0,0,0
1.365,1.875,0,0,0,0,0
1.366,1.875,0,0,0,0,0
1.367,1.875,0,0,0,0,0
1.368,2.1875,0,0,0,0,0
1.369,1.25,0,0,0,0,0
1.37,0.9375,0,0,0,0,0
1.371,0.625,0,0,0,0,0
1.372,1.5625,0,0,0,0,0
1.373,1.875,0,0,0,0,0
1.374,1.875,0,0,0,0,0
1.375,1.875,0,0,0,0,0
1.376,2.1875,0,0,0,0,0
1.377,1.875,0,0,0,0,0
1.378,1.875,0,0,0,0,0
1.379,1.875,0,0,0,0,0
1.38,1.875,0,0,0,0,0
1.381,1.875,0,0,0,0,0
1.382,2.1875,0,0,0,0,0
1.383,1.25,0,0,0,0,0
1.384,1.875,0,0,0,0,0
1.385,1.25,0,0,0,0,0
1.386,1.25,0,0,0,0,0
1.387,1.25,0,0,0,0,0
1.388,1.25,0,0,0,0,0
1.389,1.25,0,0,0,0,0
1.39,0.9375,0,0,0,0,0
1.391,0.625,0,0,0,0,0
1.392,0.625,0,0,0,0,0
1.393,0.625,0,0,0,0,0
1.394,1.25,0,0,0,0,0
1.395,0.625,0,0,0,0,0
1.396,0.9375,0,0,0,0,0
1.397,1.25,0,0,0,0,0
1.398,0.625,0,0,0,0,0
1.399,0.625,0,0,0,0,0
1.4,0.9375,0,0,0,0,0
1.401,1.25,0,0,0,0,0
1.402,1.25,0,0,0,0,0
1.403,1.25,0,0,0,0,0
1.404,0.9375,0,0,0,0,0
1.405,0.625,0,0,0,0,0
1.406,0.625,0,0,0,0,0
1.407,0.625,0,0,0,0,0
1.408,0.3125,0,0,0,0,0
1.409,0,0,0,0,0,0
1.41,0,0,0,0,0,0
1.411,0,0,0,0,0,1
1.412,0.3125,0,0,0,0,0
1.413,1.25,0,0,0,0,0
1.414,0.625,0,0,0,0,0
1.415,0.625,0,0,0,0,0
1.416,0.625,0,0,0,0,0
1.417,0.625,0,0,0,0,0
1.418,0.3125,0,0,0,0,0
1.419,0,0,0,0,0,0
1.42,0.9375,0,0,0,0,0
1.421,0.625,0,0,0,0,0
1.422,0.625,0,0,0,0,0
1.423,0.625,0,0,0,0,0
1.424,0.625,0,0,0,0,0
1.425,0.625,0,0,0,0,0
1.426,0.625,0,0,0,0,0
1.427,0.625,0,0,0,0,0
1.428,0.625,0,0,0,0,0
1.429,0.625,0,0,0,0,0
1.43,0.3125,0,0,0,0,0
1.431,0.625,0,0,0,0,0
1.432,0.9375,0,0,0,0,0
1.433,0.625,0,0,0,0,0
1.434,0.625,0,0,0,0,0
1.435,0.625,0,0,0,0,0
1.436,0.625,0,0,0,0,0
1.437,0.625,0,0,0,0,0
1.438,0.625,0,0,0,0,0
1.439,0.625,0,0,0,0,0
1.44,0.625,0,0,0,0,0
1.441,0.625,0,0,0,0,0
1.442,0.625,0,0,0,0,0
1.443,0.625,0,0,0,0,0
1.444,0.625,0,0,0,0,0
1.445,0.625,0,0,0,0,0
1.446,0.9375,0,0,0,0,0
1.447,1.25,0,0,0,0,0
1.448,0.625,0,0,0,0,0
1.449,1.25,0,0,0,0,0
1.45,1.875,0,0,0,0,0
1.451,1.875,0,0,0,0,0
1.452,1.25,0,0,0,0,0
1.453,0.625,0,0,0,0,0
1.454,1.5625,0,0,0,0,0
1.455,1.25,0,0,0,0,0
1.456,0.625,0,0,0,0,0
1.457,0,0,0,0,0,0
1.458,0,0,0,0,0,0
1.459,0,0,0,0,0,0
1.46,0.3125,0,0,0,0,0
1.461,-0.625,0,0,0,0,0
1.462,0,0,0,0,0,0
1.463,0,0,0,0,0,0
1.464,-0.3125,0,0,0,0,0
1.465,-0.625,0,0,0,0,0
1.466,-0.3125,0,0,0,0,0
1.467,0,0,0,0,0,0
1.468,0.3125,0,0,0,0,0
1.469,0,0,0,0,0,0
1.47,-0.3125,0,0,0,0,0
1.471,-0.625,0,0,0,0,0
1.472,0,0,0,0,0,0
1.473,0,0,0,0,0,0
1.474,-0.3125,0,0,0,0,0
1.475,-0.625,0,0,0,0,0
1.476,-0.625,0,0,0,0,0
1.477,-0.625,0,0,0,0,0
1.478,-0.3125,0,0,0,0,0
1.479,0,0,0,0,0,0
1.48,0,0,0,0,0,0
1.481,0,0,0,0,0,0
1.482,0,0,0,0,0,0
1.483,0,0,0,0,0,0
1.484,-0.3125,0,0,0,0,0
1.485,-0.625,0,0,0,0,0
1.486,-0.625,0,0,0,0,0
1.487,0,0,0,0,0,0
1.488,-0.625,0,0,0,0,0
1.489,-0.625,0,0,0,0,0
1.49,-0.625,0,0,0,0,0
1.491,-0.625,0,0,0,0,0
1.492,-0.3125,0,0,0,0,0
1.493,0,0,0,0,0,0
1.494,0,0,0,0,0,0
1.495,0,0,0,0,0,0
1.496,0,0,0,0,0,0
1.497,0,0,0,0,0,0
1.498,-0.625,0,0,0,0,0
1.499,-0.625,0,0,0,0,0
1.5,0.625,0,0,0,0,0
1.501,0.625,0,0,0,0,0
1.502,1.25,0,0,0,0,0
1.503,1.25,0,0,0,0,0
1.504,0.9375,0,0,0,0,0
1.505,1.25,0,0,0,0,0
1.506,1.25,0,0,0,0,0
1.507,1.25,0,0,0,0,0
1.508,0.9375,0,0,0,0,0
1.509,1.25,0,0,0,0,0
1.51,1.25,0,0,0,0,0
1.511,1.25,0,0,0,0,0
1.512,1.25,0,0,0,0,0
1.513,1.25,0,0,0,0,0
1.514,1.5625,0,0,0,0,0
1.515,1.25,0,0,0,0,0
1.516,0.625,0,0,0,0,0
1.517,0.625,0,0,0,0,0
1.518,0.9375,0,0,0,0,0
1.519,1.25,0,0,0,0,0
1.52,0.3125,0,0,0,0,0
1.521,0.625,0,0,0,0,0
1.522,0.625,0,0,0,0,0
1.523,0.625,0,0,0,0,0
1.524,0.3125,0,0,0,0,0
1.525,0,0,0,0,0,0
1.526,0.9375,0,0,0,0,0
1.527,0.625,0,0,0,0,0
1.528,0.625,0,0,0,0,0
1.529,0.625,0,0,0,0,0
1.53,0.3125,0,0,0,0,0
1.531,0,0,0,0,0,0
1.532,0.3125,0,0,0,0,0
1.533,0.625,0,0,0,0,0
1.534,0.625,0,0,0,0,0
1.535,0.625,0,0,0,0,0
1.536,0.9375,0,0,0,0,0
1.537,1.25,0,0,0,0,0
1.538,1.25,0,0,0,0,0
1.539,1.25,0,0,0,0,0
1.54,1.5625,0,0,0,0,0
1.541,1.25,0,0,0,0,0
1.542,0.625,0,0,0,0,0
1.543,0.625,0,0,0,0,0
1.544,0.9375,0,0,0,0,0
1.545,1.25,0,0,0,0,0
1.546,0.625,0,0,0,0,0
1.547,0.625,0,0,0,0,0
1.548,0.3125,0,0,0,0,0
1.549,0.625,0,0,0,0,0
1.55,0.3125,0,0,0,0,0
1.551,0,0,0,0,0,0
1.552,0,0,0,0,0,0
1.553,0,0,0,0,0,0
1.554,0.3125,0,0,0,0,0
1.555,0.625,0,0,0,0,0
1.556,0.625,0,0,0,0,0
1.557,0,0,0,0,0,0
1.558,0,0,0,0,0,0
1.559,0,0,0,0,0,0
1.56,-0.3125,0,0,0,0,0
1.561,0,0,0,0,0,0
1.562,0.3125,0,0,0,0,0
1.563,0,0,0,0,0,0
1.564,0.3125,0,0,0,0,0
1.565,0,0,0,0,0,0
1.566,0.3125,0,0,0,0,0
1.567,0.625,0,0,0,0,0
1.568,0.625,0,0,0,0,0
1.569,1.25,0,0,0,0,0
1.57,1.5625,0,0,0,0,0
1.571,1.875,0,0,0,0,0
1.572,1.25,0,0,0,0,0
1.573,1.875,0,0,0,0,0
1.574,1.875,0,0,0,0,0
1.575,1.875,0,0,0,0,0
1.576,0.9375,0,0,0,0,0
1.577,0.625,0,0,0,0,0
1.578,0.625,0,0,0,0,0
1.579,0.625,0,0,0,0,0
1.58,0.625,0,0,0,0,0
1.581,0.625,0,0,0,0,0
1.582,0.625,0,0,0,0,0
1.583,0.625,0,0,0,0,0
1.584,0.3125,0,0,0,0,0
1.585,0.625,0,0,0,0,0
1.586,0.625,0,0,0,0,0
1.587,1.25,0,0,0,0,0
1.588,1.5625,0,0,0,0,0
1.589,1.875,0,0,0,0,0
1.59,1.5625,0,0,0,0,0
1.591,1.25,0,0,0,0,0
1.592,0.9375,0,0,0,0,0
1.593,0.625,0,0,0,0,0
1.594,0.625,0,0,0,0,0
1.595,0.625,0,0,0,0,0
1.596,1.5625,0,0,0,0,0
1.597,1.25,0,0,0,0,0
1.598,1.25,0,0,0,0,0
1.599,1.25,0,0,0,0,0
1.6,0.9375,0,0,0,0,0
1.601,0.625,0,0,0,0,0
1.602,1.5625,0,0,0,0,0
1.603,1.875,0,0,0,0,0
1.604,1.5625,0,0,0,0,0
1.605,1.25,0,0,0,0,0
1.606,1.25,0,0,0,0,0
1.607,1.25,0,0,0,0,0
1.608,1.25,0,0,0,0,0
1.609,1.875,0,0,0,0,0
1.61,1.875,0,0,0,0,0
1.611,1.875,0,0,0,0,0
1.612,1.25,0,0,0,0,0
1.613,1.25,0,0,0,0,0
1.614,0.9375,0,0,0,0,0
1.615,0.625,0,0,0,0,0
1.616,0.9375,0,0,0,0,0
1.617,1.25,0,0,0,0,0
1.618,1.25,0,0,0,0,0
1.619,0.625,0,0,0,0,0
1.62,0.3125,0,0,0,0,0
1.621,0,0,0,0,0,0
1.622,0.625,0,0,0,0,0
1.623,0.625,0,0,0,0,0
1.624,0.9375,0,0,0,0,0
1.625,1.25,0,0,0,0,0
1.626,0.625,0,0,0,0,0
1.627,0.625,0,0,0,0,0
1.628,0.3125,0,0,0,0,0
1.629,0,0,0,0,0,0
1.63,0,0,0,0,0,0
1.631,0.625,0,0,0,0,0
1.632,0.3125,0,0,0,0,0
1.633,0.625,0,0,0,0,0
1.634,0.625,0,0,0,0,0
1.635,0.625,0,0,0,0,0
1.636,0.3125,0,0,0,0,0
1.637,0,0,0,0,0,0
1.638,0,0,0,0,0,0
1.639,0,0,0,0,0,0
1.64,0.3125,0,0,0,0,0
1.641,0,0,0,0,0,0
1.642,0.9375,0,0,0,0,0
1.643,1.875,0,0,0,0,0
1.644,1.875,0,0,0,0,0
1.645,1.875,0,0,0,0,0
1.646,2.1875,0,0,0,0,0
1.647,1.875,0,0,0,0,0
1.648,1.5625,0,0,0,0,0
1.649,1.875,0,0,0,0,0
1.65,1.5625,0,0,0,0,0
1.651,0.625,0,0,0,0,0
1.652,0.9375,0,0,0,0,0
1.653,0.625,0,0,0,0,0
1.654,1.25,0,0,0,0,0
1.655,1.25,0,0,0,0,0
1.656,1.5625,0,0,0,0,0
1.657,1.25,0,0,0,0,0
1.658,1.25,0,0,0,0,0
1.659,1.25,0,0,0,0,0
1.66,0.625,0,0,0,0,0
1.661,1.25,0,0,0,0,0
1.662,0.9375,0,0,0,0,0
1.663,0.625,0,0,0,0,0
1.664,0.3125,0,0,0,0,0
1.665,0,0,0,0,0,0
1.666,-0.625,0,0,0,0,0
1.667,0,0,0,0,0,0
1.668,0,0,0,0,0,0
1.669,0,0,0,0,0,0
1.67,0.9375,0,0,0,0,0
1.671,0.625,0,0,0,0,0
1.672,0.9375,0,0,0,0,0
1.673,1.25,0,0,0,0,0
1.674,1.25,0,0,0,0,0
1.675,1.25,0,0,0,0,0
1.676,0.9375,0,0,0,0,0
1.677,0.625,0,0,0,0,0
1.678,0.9375,0,0,0,0,0
1.679,0.625,0,0,0,0,0
1.68,1.5625,0,0,0,0,0
1.681,1.875,0,0,0,0,0
1.682,1.875,0,0,0,0,0
1.683,1.875,0,0,0,0,0
1.684,1.5625,0,0,0,0,0
1.685,1.25,0,0,0,0,0
1.686,1.5625,0,0,0,0,0
1.687,1.875,0,0,0,0,0
1.688,1.875,0,0,0,0,0
1.689,1.875,0,0,0,0,0
1.69,1.5625,0,0,0,0,0
1.691,1.25,0,0,0,0,0
1.692,1.25,0,0,0,0,0
1.693,1.25,0,0,0,0,0
1.694,1.5625,0,0,0,0,0
1.695,1.875,0,0,0,0,0
1.696,1.25,0,0,0,0,0
1.697,0.625,0,0,0,0,0
1.698,0.3125,0,0,0,0,0
1.699,0.625,0,0,0,0,0
1.7,0.3125,0,0,0,0,0
1.701,0.625,0,0,0,0,0
1.702,0.9375,0,0,0,0,0
1.703,0.625,0,0,0,0,0
1.704,0.625,0,0,0,0,0
1.705,0.625,0,0,0,0,0
1.706,0.625,0,0,0,0,0
1.707,0.625,0,0,0,0,0
1.708,0.3125,0,0,0,0,0
1.709,0,0,0,0,0,0
1.71,0.3125,0,0,0,0,0
1.711,0.625,0,0,0,0,0
1.712,1.25,0,0,0,0,0
1.713,1.25,0,0,0,0,0
1.714,0.9375,0,0,0,0,0
1.715,1.25,0,0,0,0,0
1.716,1.5625,0,0,0,0,0
1.717,1.25,0,0,0,0,0
1.718,1.875,0,0,0,0,0
1.719,1.875,0,0,0,0,0
1.72,1.5625,0,0,0,0,0
1.721,1.875,0,0,0,0,0
1.722,1.875,0,0,0,0,0
1.723,1.875,0,0,0,0,0
1.724,1.5625,0,0,0,0,0
1.725,1.875,0,0,0,0,0
1.726,1.5625,0,0,0,0,0
1.727,1.875,0,0,0,0,0
1.728,1.875,0,0,0,0,0
1.729,1.875,0,0,0,0,0
1.73,2.5,0,0,0,0,0
1.731,1.875,0,0,0,0,0
1.732,2.5,0,0,0,0,0
1.733,2.5,0,0,0,0,0
1.734,2.5,0,0,0,0,0
1.735,2.5,0,0,0,0,0
1.736,2.5,0,0,0,0,0
1.737,2.5,0,0,0,0,0
1.738,2.5,0,0,0,0,0
1.739,2.5,0,0,0,0,0
1.74,2.1875,0,0,0,0,0
1.741,1.875,0,0,0,0,0
1.742,1.875,0,0,0,0,0
1.743,2.5,0,0,0,0,0
1.744,2.1875,0,0,0,0,0
1.745,2.5,0,0,0,0,0
1.746,2.8125,0,0,0,0,0
1.747,3.125,0,0,0,0,0
1.748,3.125,0,0,0,0,0
1.749,3.125,0,0,0,0,0
1.75,3.125,0,0,0,0,0
1.751,3.125,0,0,0,0,0
1.752,3.125,0,0,0,0,0
1.753,3.75,0,0,0,0,0
1.754,3.4375,0,0,0,0,0
1.755,3.125,0,0,0,0,0
1.756,3.4375,0,0,0,0,0
1.757,3.75,0,0,0,0,0
1.758,3.4375,0,0,0,0,0
1.759,3.125,0,0,0,0,0
1.76,3.4375,0,0,0,0,0
1.761,3.75,0,0,0,0,0
1.762,3.75,0,0,0,0,0
1.763,3.75,0,0,0,0,0
1.764,4.0625,0,0,0,0,0
1.765,3.75,0,0,0,0,0
1.766,3.75,0,0,0,0,0
1.767,3.75,0,0,0,0,0
1.768,3.75,0,0,0,0,0
1.769,3.75,0,0,0,0,0
1.77,3.4375,0,0,0,0,0
1.771,3.125,0,0,0,0,0
1.772,3.75,0,0,0,0,0
1.773,3.125,0,0,0,0,0
1.774,3.4375,0,0,0,0,0
1.775,3.75,0,0,0,0,0
1.776,3.4375,0,0,0,0,0
1.777,3.125,0,0,0,0,0
1.778,3.4375,0,0,0,0,0
1.779,3.125,0,0,0,0,0
1.78,3.125,0,0,0,0,0
1.781,3.125,0,0,0,0,0
1.782,3.125,0,0,0,0,0
1.783,3.125,0,0,0,0,0
1.784,3.125,0,0,0,0,0
1.785,2.5,0,0,0,0,0
1.786,2.8125,0,0,0,0,0
1.787,3.125,0,0,0,0,0
1.788,3.4375,0,0,0,0,0
1.789,3.75,0,0,0,0,0
1.79,3.75,0,0,0,0,0
1.791,3.75,0,0,0,0,0
1.792,3.4375,0,0,0,0,0
1.793,3.125,0,0,0,0,0
1.794,3.125,0,0,0,0,0
1.795,3.125,0,0,0,0,0
1.796,3.125,0,0,0,0,0
1.797,3.125,0,0,0,0,0
1.798,3.4375,0,0,0,0,0
1.799,3.125,0,0,0,0,0
1.8,3.125,0,0,0,0,0
1.801,3.75,0,0,0,0,0
1.802,3.125,0,0,0,0,0
1.803,3.125,0,0,0,0,0
1.804,3.125,0,0,0,0,0
1.805,3.125,0,0,0,0,0
1.806,2.5,0,0,0,0,0
1.807,3.125,0,0,0,0,0
1.808,3.125,0,0,0,0,0
1.809,3.125,0,0,0,0,0
1.81,2.8125,0,0,0,0,0
1.811,2.5,0,0,0,0,0
1.812,2.1875,0,0,0,0,0
1.813,1.875,0,0,0,0,0
1.814,2.5,0,0,0,0,0
1.815,2.5,0,0,0,0,0
1.816,2.5,0,0,0,0,0
1.817,2.5,0,0,0,0,0
1.818,2.8125,0,0,0,0,0
1.819,3.125,0,0,0,0,0
1.82,2.5,0,0,0,0,0
1.821,2.5,0,0,0,0,0
1.822,2.5,0,0,0,0,0
1.823,3.125,0,0,0,0,0
1.824,2.1875,0,0,0,0,0
1.825,2.5,0,0,0,0,0
1.826,1.875,0,0,0,0,0
1.827,1.875,0,0,0,0,0
1.828,1.875,0,0,0,0,0
1.829,1.25,0,0,0,0,0
1.83,1.875,0,0,0,0,0
1.831,1.875,0,0,0,0,0
1.832,1.25,0,0,0,0,0
1.833,1.875,0,0,0,0,0
1.834,1.5625,0,0,0,0,0
1.835,1.875,0,0,0,0,0
1.836,1.875,0,0,0,0,0
1.837,1.875,0,0,0,0,0
1.838,1.875,0,0,0,0,0
1.839,1.25,0,0,0,0,0
1.84,1.25,0,0,0,0,0
1.841,1.25,0,0,0,0,0
1.842,0.9375,0,0,0,0,0
1.843,0.625,0,0,0,0,0
1.844,0.3125,0,0,0,0,0
1.845,0,0,0,0,0,0
1.846,0,0,0,0,0,0
1.847,-0.625,0,0,0,0,0
1.848,0,0,0,0,0,0
1.849,0,0,0,0,0,0
1.85,0,0,0,0,0,0
1.851,0,0,0,0,0,0
1.852,0.625,0,0,0,0,0
1.853,0.625,0,0,0,0,0
1.854,0.3125,0,0,0,0,0
1.855,0,0,0,0,0,0
1.856,0.625,0,0,0,0,0
1.857,0,0,0,0,0,0
1.858,0.625,0,0,0,0,0
1.859,0.625,0,0,0,0,0
1.86,-0.3125,0,0,0,0,0
1.861,0,0,0,0,0,0
1.862,0,0,0,0,0,0
1.863,0,0,0,0,0,0
1.864,-0.9375,0,0,0,0,0
1.865,-0.625,0,0,0,0,0
1.866,0,0,0,0,0,0
1.867,0.625,0,0,0,0,0
1.868,0.9375,0,0,0,0,0
1.869,0.625,0,0,0,0,0
1.87,0,0,0,0,0,0
1.871,-0.625,0,0,0,0,0
1.872,0.3125,0,0,0,0,0
1.873,0,0,0,0,0,0
1.874,0.3125,0,0,0,0,0
1.875,0.625,0,0,0,0,0
1.876,0.625,0,0,0,0,0
1.877,0.625,0,0,0,0,0
1.878,0.3125,0,0,0,0,0
1.879,0,0,0,0,0,0
1.88,0,0,0,0,0,0
1.881,0.625,0,0,0,0,0
1.882,1.25,0,0,0,0,0
1.883,1.25,0,0,0,0,0
1.884,0.9375,0,0,0,0,0
1.885,0.625,0,0,0,0,0
1.886,0.9375,0,0,0,0,0
1.887,1.25,0,0,0,0,0
1.888,0.9375,0,0,0,0,0
1.889,0.625,0,0,0,0,0
1.89,0.9375,0,0,0,0,0
1.891,0.625,0,0,0,0,0
1.892,0.625,0,0,0,0,0
1.893,0.625,0,0,0,0,0
1.894,0.625,0,0,0,0,0
1.895,0.625,0,0,0,0,0
1.896,-0.3125,0,0,0,0,0
1.897,0,0,0,0,0,0
1.898,0,0,0,0,0,0
1.899,0,0,0,0,0,0
1.9,0.3125,1,0,0,0,0
1.901,0.625,0,0,0,0,0
1.902,1.25,0,0,0,0,0
1.903,1.25,0,0,0,0,0
1.904,1.5625,0,0,0,0,0
1.905,1.875,0,0,0,0,0
1.906,1.875,0,0,0,0,0
1.907,2.5,0,0,0,0,0
1.908,3.125,0,0,0,0,0
1.909,3.125,0,0,0,0,0
1.91,3.125,0,0,0,0,0
1.911,3.125,0,0,0,0,0
1.912,4.0625,0,0,0,0,0
1.913,4.375,0,0,0,0,0
1.914,4.6875,0,0,0,0,0
1.915,4.375,0,0,0,0,0
1.916,4.6875,0,0,0,0,0
1.917,5,0,0,0,0,0
1.918,5.9375,0,0,0,0,0
1.919,6.25,0,0,0,0,0
1.92,8.125,0,0,0,0,0
1.921,9.375,0,0,0,0,0
1.922,10.313,0,0,0,0,0
1.923,10.625,0,0,0,0,0
1.924,11.875,0,0,0,0,0
1.925,12.5,0,0,0,0,0
1.926,13.438,0,0,0,0,0
1.927,15,0,0,0,0,0
1.928,16.875,0,0,0,0,0
1.929,18.125,0,0,0,0,0
1.93,19.688,0,0,0,0,0
1.931,21.875,0,0,0,0,0
1.932,25,0,0,0,0,0
1.933,27.5,0,0,0,0,0
1.934,30.938,0,0,0,0,0
1.935,33.75,0,0,0,0,0
1.936,37.5,0,0,0,0,0
1.937,40.625,0,0,0,0,0
1.938,45,0,0,0,0,0
1.939,48.75,0,0,0,0,0
1.94,53.125,0,0,0,0,0
1.941,56.875,0,0,0,0,0
1.942,60.625,0,0,0,0,0
1.943,64.375,0,0,0,0,0
1.944,68.125,0,0,0,0,0
1.945,71.25,0,0,0,0,0
1.946,75,0,0,0,0,0
1.947,77.5,0,0,0,0,0
1.948,80.313,0,0,0,0,0
1.949,81.875,0,0,0,0,0
1.95,82.813,0,0,0,0,0
1.951,82.5,0,0,0,0,0
1.952,82.813,0,1,0,0,0
1.953,83.125,0,0,0,0,0
1.954,84.063,0,0,0,0,0
1.955,83.75,0,0,0,0,0
1.956,84.688,0,0,0,0,0
1.957,82.5,0,0,0,0,0
1.958,80,0,0,0,0,0
1.959,75.625,0,0,0,0,0
1.96,67.188,0,0,0,0,0
1.961,58.75,0,0,0,0,0
1.962,51.563,0,0,0,0,0
1.963,46.25,0,0,0,0,0
1.964,40.313,0,0,0,0,0
1.965,35,0,0,0,0,0
1.966,29.688,0,0,0,0,0
1.967,22.5,0,0,0,0,0
1.968,14.063,0,0,0,0,0
1.969,6.25,0,0,0,0,0
1.97,-0.625,0,0,0,0,0
1.971,-5.625,0,0,0,0,0
1.972,-9.6875,0,0,0,0,0
1.973,-13.125,0,0,0,0,0
1.974,-15,0,0,0,0,0
1.975,-15.625,0,0,0,0,0
1.976,-16.875,0,0,0,0,0
1.977,-16.875,0,0,0,0,0
1.978,-17.5,0,0,0,0,0
1.979,-17.5,0,0,0,0,0
1.98,-16.563,0,0,0,0,0
1.981,-15,0,0,0,0,0
1.982,-14.063,0,0,0,0,0
1.983,-13.125,0,0,0,0,0
1.984,-12.813,0,0,0,0,0
1.985,-12.5,0,0,0,0,0
1.986,-11.875,0,0,0,0,0
1.987,-10,0,0,0,0,0
1.988,-9.6875,0,0,0,0,0
1.989,-8.75,0,0,0,0,0
1.99,-7.5,0,0,0,0,0
1.991,-7.5,0,0,0,0,0
1.992,-7.5,0,0,0,0,0
1.993,-7.5,0,0,0,0,0
1.994,-7.1875,0,0,1,0,0
1.995,-6.25,0,0,0,0,0
1.996,-5.625,0,0,0,0,0
1.997,-5.625,0,0,0,0,0
1.998,-5.3125,0,0,0,0,0
1.999,-4.375,0,0,0,0,0
2,-5,0,0,0,0,0
2.001,-4.375,0,0,0,0,0
2.002,-3.75,0,0,0,0,0
2.003,-3.75,0,0,0,0,0
2.004,-3.75,0,0,0,0,0
2.005,-3.75,0,0,0,0,0
2.006,-4.0625,0,0,0,0,0
2.007,-4.375,0,0,0,0,0
2.008,-5,0,0,0,0,0
2.009,-4.375,0,0,0,0,0
2.01,-5,0,0,0,0,0
2.011,-5,0,0,0,0,0
2.012,-4.6875,0,0,0,0,0
2.013,-4.375,0,0,0,0,0
2.014,-4.375,0,0,0,0,0
2.015,-4.375,0,0,0,0,0
2.016,-4.375,0,0,0,0,0
2.017,-4.375,0,0,0,0,0
2.018,-3.75,0,0,0,0,0
2.019,-3.125,0,0,0,0,0
2.02,-3.125,0,0,0,0,0
2.021,-3.125,0,0,0,0,0
2.022,-3.125,0,0,0,0,0
2.023,-3.125,0,0,0,0,0
2.024,-3.125,0,0,0,0,0
2.025,-3.125,0,0,0,0,0
2.026,-2.8125,0,0,0,0,0
2.027,-2.5,0,0,0,0,0
2.028,-3.4375,0,0,0,0,0
2.029,-3.75,0,0,0,0,0
2.03,-4.6875,0,0,0,0,0
2.031,-5,0,0,0,0,0
2.032,-5,0,0,0,0,0
2.033,-5,0,0,0,0,0
2.034,-5.625,0,0,0,0,0
2.035,-6.25,0,0,0,0,0
2.036,-5.625,0,0,0,0,0
2.037,-5.625,0,0,0,0,0
2.038,-5.9375,0,0,0,0,0
2.039,-5.625,0,0,0,0,0
2.04,-5.3125,0,0,0,0,0
2.041,-5,0,0,0,0,0
2.042,-5.3125,0,0,0,0,0
2.043,-5.625,0,0,0,0,0
2.044,-5.625,0,0,0,0,0
2.045,-5.625,0,0,0,0,0
2.046,-5.625,0,0,0,0,0
2.047,-5,0,0,0,0,0
2.048,-5.3125,0,0,0,0,0
2.049,-5.625,0,0,0,0,0
2.05,-5.9375,0,0,0,0,0
2.051,-5.625,0,0,0,0,0
2.052,-5.3125,0,0,0,0,0
2.053,-5,0,0,0,0,0
2.054,-5,0,0,0,0,0
2.055,-4.375,0,0,0,0,0
2.056,-4.6875,0,0,0,0,0
2.057,-4.375,0,0,0,0,0
2.058,-4.0625,0,0,0,0,0
2.059,-3.75,0,0,0,0,0
2.06,-4.0625,0,0,0,0,0
2.061,-3.75,0,0,0,0,0
2.062,-4.0625,0,0,0,0,0
2.063,-4.375,0,0,0,0,0
2.064,-4.375,0,0,0,0,0
2.065,-4.375,0,0,0,0,0
2.066,-4.0625,0,0,0,0,0
2.067,-3.75,0,0,0,0,0
2.068,-3.75,0,0,0,0,0
2.069,-3.75,0,0,0,0,0
2.07,-3.75,0,0,0,0,0
2.071,-3.75,0,0,0,0,0
2.072,-4.0625,0,0,0,0,0
2.073,-3.75,0,0,0,0,0
2.074,-3.75,0,0,0,0,0
2.075,-3.75,0,0,0,0,0
2.076,-3.4375,0,0,0,0,0
2.077,-3.75,0,0,0,0,0
2.078,-3.75,0,0,0,0,0
2.079,-3.75,0,0,0,0,0
2.08,-3.4375,0,0,0,0,0
2.081,-3.125,0,0,0,0,0
2.082,-4.6875,0,0,0,0,0
2.083,-5.625,0,0,0,0,0
2.084,-5.625,0,0,0,0,0
2.085,-5.625,0,0,0,0,0
2.086,-5.625,0,0,0,0,0
2.087,-5.625,0,0,0,0,0
2.088,-5.625,0,0,0,0,0
2.089,-5,0,0,0,0,0
2.09,-5.3125,0,0,0,0,0
2.091,-5.625,0,0,0,0,0
2.092,-5.3125,0,0,0,0,0
2.093,-5.625,0,0,0,0,0
2.094,-5,0,0,0,0,0
2.095,-5.625,0,0,0,0,0
2.096,-5,0,0,0,0,0
2.097,-5,0,0,0,0,0
2.098,-5,0,0,0,0,0
2.099,-5.625,0,0,0,0,0
2.1,-5.3125,0,0,0,0,0
2.101,-5,0,0,0,0,0
2.102,-5.3125,0,0,0,0,0
2.103,-5.625,0,0,0,0,0
2.104,-5.9375,0,0,0,0,0
2.105,-6.25,0,0,0,0,0
2.106,-5.3125,0,0,0,0,0
2.107,-5,0,0,0,0,0
2.108,-5,0,0,0,0,0
2.109,-5,0,0,0,0,0
2.11,-4.6875,0,0,0,0,0
2.111,-4.375,0,0,0,0,0
2.112,-4.6875,0,0,0,0,0
2.113,-4.375,0,0,0,0,0
2.114,-4.6875,0,0,0,0,0
2.115,-5,0,0,0,0,0
2.116,-5,0,0,0,0,0
2.117,-5,0,0,0,0,0
2.118,-4.6875,0,0,0,0,0
2.119,-4.375,0,0,0,0,0
2.12,-5,0,0,0,0,0
2.121,-5,0,0,0,0,0
2.122,-5.3125,0,0,0,0,0
2.123,-5.625,0,0,0,0,0
2.124,-5.9375,0,0,0,0,0
2.125,-6.25,0,0,0,0,0
2.126,-6.25,0,0,0,0,0
2.127,-6.875,0,0,0,0,0
2.128,-6.5625,0,0,0,0,0
2.129,-6.875,0,0,0,0,0
2.13,-6.5625,0,0,0,0,0
2.131,-6.25,0,0,0,0,0
2.132,-6.25,0,0,0,0,0
2.133,-6.25,0,0,0,0,0
2.134,-6.25,0,0,0,0,0
2.135,-6.25,0,0,0,0,0
2.136,-6.5625,0,0,0,0,0
2.137,-7.5,0,0,0,0,0
2.138,-7.5,0,0,0,0,0
2.139,-7.5,0,0,0,0,0
2.14,-7.1875,0,0,0,0,0
2.141,-6.875,0,0,0,0,0
2.142,-6.875,0,0,0,0,0
2.143,-6.875,0,0,0,0,0
2.144,-6.875,0,0,0,0,0
2.145,-6.875,0,0,0,0,0
2.146,-7.1875,0,0,0,0,0
2.147,-7.5,0,0,0,0,0
2.148,-7.5,0,0,0,0,0
2.149,-7.5,0,0,0,0,0
2.15,-7.5,0,0,0,0,0
2.151,-7.5,0,0,0,0,0
2.152,-7.8125,0,0,0,0,0
2.153,-8.125,0,0,0,0,0
2.154,-8.4375,0,0,0,0,0
2.155,-8.75,0,0,0,0,0
2.156,-8.75,0,0,0,0,0
2.157,-8.75,0,0,0,0,0
2.158,-8.4375,0,0,0,0,0
2.159,-8.125,0,0,0,0,0
2.16,-8.4375,0,0,0,0,0
2.161,-8.125,0,0,0,0,0
2.162,-7.8125,0,0,0,0,0
2.163,-7.5,0,0,0,0,0
2.164,-7.8125,0,0,0,0,0
2.165,-7.5,0,0,0,0,0
2.166,-7.8125,0,0,0,0,0
2.167,-7.5,0,0,0,0,0
2.168,-7.5,0,0,0,0,0
2.169,-7.5,0,0,0,0,0
2.17,-7.5,0,0,0,0,0
2.171,-7.5,0,0,0,0,0
2.172,-7.8125,0,0,0,0,0
2.173,-8.75,0,0,0,0,0
2.174,-8.4375,0,0,0,0,0
2.175,-8.75,0,0,0,0,0
2.176,-8.125,0,0,0,0,0
2.177,-8.125,0,0,0,0,0
2.178,-8.4375,0,0,0,0,0
2.179,-8.75,0,0,0,0,0
2.18,-8.75,0,0,0,0,0
2.181,-8.125,0,0,0,0,0
2.182,-9.375,0,0,0,0,0
2.183,-9.375,0,0,0,0,0
2.184,-9.375,0,0,0,0,0
2.185,-9.375,0,0,0,0,0
2.186,-9.0625,0,0,0,0,0
2.187,-8.75,0,0,0,0,0
2.188,-10,0,0,0,0,0
2.189,-10,0,0,0,0,0
2.19,-9.6875,0,0,0,0,0
2.191,-9.375,0,0,0,0,0
2.192,-10,0,0,0,0,0
2.193,-10,0,0,0,0,0
2.194,-9.0625,0,0,0,0,0
2.195,-8.75,0,0,0,0,0
2.196,-9.0625,0,0,0,0,0
2.197,-8.75,0,0,0,0,0
2.198,-8.75,0,0,0,0,0
2.199,-8.75,0,0,0,0,0
2.2,-8.4375,0,0,0,0,0
2.201,-8.125,0,0,0,0,0
2.202,-8.125,0,0,0,0,0
2.203,-8.125,0,0,0,0,0
2.204,-8.4375,0,0,0,0,0
2.205,-8.75,0,0,0,0,0
2.206,-8.75,0,0,0,0,0
2.207,-8.75,0,0,0,0,0
2.208,-8.75,0,0,0,0,0
2.209,-8.75,0,0,0,0,0
2.21,-9.375,0,0,0,0,0
2.211,-10,0,0,0,0,0
2.212,-9.6875,0,0,0,0,0
2.213,-10,0,0,0,0,0
2.214,-9.6875,0,0,0,0,0
2.215,-9.375,0,0,0,0,0
2.216,-9.375,0,0,0,0,0
2.217,-9.375,0,0,0,0,0
2.218,-9.375,0,0,0,0,0
2.219,-9.375,0,0,0,0,0
2.22,-8.75,0,0,0,0,0
2.221,-8.75,0,0,0,0,0
2.222,-8.75,0,0,0,0,0
2.223,-9.375,0,0,0,0,0
2.224,-9.6875,0,0,0,0,0
2.225,-10,0,0,0,0,0
2.226,-10.938,0,0,0,0,0
2.227,-10.625,0,0,0,0,0
2.228,-10.938,0,0,0,0,0
2.229,-11.25,0,0,0,0,0
2.23,-11.25,0,0,0,0,0
2.231,-11.25,0,0,0,0,0
2.232,-11.875,0,0,0,0,0
2.233,-11.875,0,0,0,0,0
2.234,-11.875,0,0,0,0,0
2.235,-11.875,0,0,0,0,0
2.236,-11.563,0,0,0,0,0
2.237,-11.25,0,0,0,0,0
2.238,-10.938,0,0,0,0,0
2.239,-11.25,0,0,0,0,0
2.24,-11.875,0,0,0,0,0
2.241,-11.25,0,0,0,0,0
2.242,-11.563,0,0,0,0,0
2.243,-11.875,0,0,0,0,0
2.244,-11.875,0,0,0,0,0
2.245,-11.875,0,0,0,0,0
2.246,-11.875,0,0,0,0,0
2.247,-11.875,0,0,0,0,0
2.248,-11.875,0,0,0,0,0
2.249,-11.875,0,0,0,0,0
2.25,-11.563,0,0,0,0,0
2.251,-11.875,0,0,0,0,0
2.252,-11.875,0,0,0,0,0
2.253,-11.875,0,0,0,0,0
2.254,-11.563,0,0,0,0,0
2.255,-11.25,0,0,0,0,0
2.256,-11.875,0,0,0,0,0
2.257,-11.875,0,0,0,0,0
2.258,-12.188,0,0,0,0,0
2.259,-11.875,0,0,0,0,0
2.26,-12.188,0,0,0,0,0
2.261,-12.5,0,0,0,0,0
2.262,-12.5,0,0,0,0,0
2.263,-12.5,0,0,0,0,0
2.264,-12.188,0,0,0,0,0
2.265,-12.5,0,0,0,0,0
2.266,-12.5,0,0,0,0,0
2.267,-12.5,0,0,0,0,0
2.268,-12.188,0,0,0,1,0
2.269,-11.875,0,0,0,0,0
2.27,-11.875,0,0,0,0,0
2.271,-11.875,0,0,0,0,0
2.272,-11.875,0,0,0,0,0
2.273,-11.875,0,0,0,0,0
2.274,-11.563,0,0,0,0,0
2.275,-11.25,0,0,0,0,0
2.276,-10.938,0,0,0,0,0
2.277,-11.25,0,0,0,0,0
2.278,-11.563,0,0,0,0,0
2.279,-11.875,0,0,0,0,0
2.28,-11.563,0,0,0,0,0
2.281,-10.625,0,0,0,0,0
2.282,-10.313,0,0,0,0,0
2.283,-10,0,0,0,0,0
2.284,-10.313,0,0,0,0,0
2.285,-10.625,0,0,0,0,0
2.286,-10.938,0,0,0,0,0
2.287,-10.625,0,0,0,0,0
2.288,-11.25,0,0,0,0,0
2.289,-11.25,0,0,0,0,0
2.29,-10.313,0,0,0,0,0
2.291,-10,0,0,0,0,0
2.292,-9.6875,0,0,0,0,0
2.293,-9.375,0,0,0,0,0
2.294,-8.75,0,0,0,0,0
2.295,-8.75,0,0,0,0,0
2.296,-8.4375,0,0,0,0,0
2.297,-8.75,0,0,0,0,0
2.298,-7.8125,0,0,0,0,0
2.299,-7.5,0,0,0,0,0
2.3,-7.1875,0,0,0,0,0
2.301,-6.25,0,0,0,0,0
2.302,-5.3125,0,0,0,0,0
2.303,-5,0,0,0,0,0
2.304,-5.9375,0,0,0,0,0
2.305,-5.625,0,0,0,0,0
2.306,-5,0,0,0,0,0
2.307,-5,0,0,0,0,0
2.308,-5,0,0,0,0,0
2.309,-5,0,0,0,0,0
2.31,-5.3125,0,0,0,0,0
2.311,-5,0,0,0,0,0
2.312,-4.0625,0,0,0,0,0
2.313,-3.125,0,0,0,0,0
2.314,-2.5,0,0,0,0,0
2.315,-2.5,0,0,0,0,0
2.316,-1.875,0,0,0,0,0
2.317,-1.875,0,0,0,0,0
2.318,-2.1875,0,0,0,0,0
2.319,-1.875,0,0,0,0,0
2.32,-1.5625,0,0,0,0,0
2.321,-1.25,0,0,0,0,0
2.322,-0.625,0,0,0,0,0
2.323,-0.625,0,0,0,0,0
2.324,-0.625,0,0,0,0,0
2.325,0,0,0,0,0,0
2.326,-0.9375,0,0,0,0,0
2.327,-0.625,0,0,0,0,0
2.328,-0.625,0,0,0,0,0
2.329,-0.625,0,0,0,0,0
2.33,-0.9375,0,0,0,0,0
2.331,-0.625,0,0,0,0,0
2.332,-0.3125,0,0,0,0,0
2.333,0,0,0,0,0,0
2.334,0,0,0,0,0,0
2.335,0,0,0,0,0,0
2.336,-0.625,0,0,0,0,0
2.337,0,0,0,0,0,0
2.338,0.3125,0,0,0,0,0
2.339,0.625,0,0,0,0,0
2.34,0.3125,0,0,0,0,0
2.341,0,0,0,0,0,0
2.342,0,0,0,0,0,0
2.343,0,0,0,0,0,0
2.344,0,0,0,0,0,0
2.345,0,0,0,0,0,0
2.346,0.625,0,0,0,0,0
2.347,0.625,0,0,0,0,0
2.348,0.9375,0,0,0,0,0
2.349,1.25,0,0,0,0,0
2.35,0.9375,0,0,0,0,0
2.351,0.625,0,0,0,0,0
2.352,1.25,0,0,0,0,0
2.353,0.625,0,0,0,0,0
2.354,0,0,0,0,0,0
2.355,0,0,0,0,0,0
2.356,-0.3125,0,0,0,0,0
2.357,-0.625,0,0,0,0,0
2.358,0,0,0,0,0,0
2.359,-0.625,0,0,0,0,0
2.36,0.3125,0,0,0,0,0
2.361,0.625,0,0,0,0,0
2.362,0.625,0,0,0,0,0
2.363,0.625,0,0,0,0,0
2.364,0.9375,0,0,0,0,0
2.365,0.625,0,0,0,0,0
2.366,0.625,0,0,0,0,0
2.367,0.625,0,0,0,0,0
2.368,0.625,0,0,0,0,0
2.369,0.625,0,0,0,0,0
2.37,0.9375,0,0,0,0,0
2.371,1.25,0,0,0,0,0
2.372,0.625,0,0,0,0,0
2.373,0,0,0,0,0,0
2.374,0.3125,0,0,0,0,0
2.375,0,0,0,0,0,0
2.376,0,0,0,0,0,0
2.377,0,0,0,0,0,0
2.378,0,0,0,0,0,0
2.379,0,0,0,0,0,0
2.38,-0.3125,0,0,0,0,0
2.381,-0.625,0,0,0,0,0
2.382,-0.3125,0,0,0,0,0
2.383,-0.625,0,0,0,0,0
2.384,-0.625,0,0,0,0,0
2.385,-0.625,0,0,0,0,0
2.386,-0.3125,0,0,0,0,0
2.387,0,0,0,0,0,0
2.388,-0.625,0,0,0,0,0
2.389,0,0,0,0,0,0
2.39,0,0,0,0,0,0
2.391,0,0,0,0,0,0
2.392,0,0,0,0,0,0
2.393,-0.625,0,0,0,0,0
2.394,0.3125,0,0,0,0,0
2.395,0.625,0,0,0,0,0
2.396,-0.3125,0,0,0,0,0
2.397,-0.625,0,0,0,0,0
2.398,-0.3125,0,0,0,0,0
2.399,0,0,0,0,0,0
2.4,-1.25,0,0,0,0,0
2.401,-1.25,0,0,0,0,0
2.402,-1.25,0,0,0,0,0
2.403,-1.25,0,0,0,0,0
2.404,-1.25,0,0,0,0,0
2.405,-1.25,0,0,0,0,0
2.406,-0.9375,0,0,0,0,0
2.407,-0.625,0,0,0,0,0
2.408,-0.9375,0,0,0,0,0
2.409,-1.875,0,0,0,0,0
2.41,-1.25,0,0,0,0,0
2.411,-1.25,0,0,0,0,0
2.412,-0.9375,0,0,0,0,0
2.413,-0.625,0,0,0,0,0
2.414,-0.3125,0,0,0,0,0
2.415,0,0,0,0,0,0
2.416,0.3125,0,0,0,0,1
2.417,0.625,0,0,0,0,0
2.418,0.3125,0,0,0,0,0
2.419,0,0,0,0,0,0
2.42,0,0,0,0,0,0
2.421,0,0,0,0,0,0
2.422,0,0,0,0,0,0
2.423,0,0,0,0,0,0
2.424,-0.9375,0,0,0,0,0
2.425,-1.25,0,0,0,0,0
2.426,-0.3125,0,0,0,0,0
2.427,0,0,0,0,0,0
2.428,-0.625,0,0,0,0,0
2.429,-0.625,0,0,0,0,0
2.43,-0.625,0,0,0,0,0
2.431,-0.625,0,0,0,0,0
2.432,0,0,0,0,0,0
2.433,-0.625,0,0,0,0,0
2.434,-0.9375,0,0,0,0,0
2.435,-1.25,0,0,0,0,0
2.436,-0.9375,0,0,0,0,0
2.437,-1.25,0,0,0,0,0
2.438,-0.9375,0,0,0,0,0
2.439,-0.625,0,0,0,0,0
2.44,-0.3125,0,0,0,0,0
2.441,-0.625,0,0,0,0,0
2.442,-0.625,0,0,0,0,0
2.443,-0.625,0,0,0,0,0
2.444,-0.625,0,0,0,0,0
2.445,-0.625,0,0,0,0,0
2.446,0,0,0,0,0,0
2.447,-0.625,0,0,0,0,0
2.448,0,0,0,0,0,0
2.449,-0.625,0,0,0,0,0
2.45,-0.3125,0,0,0,0,0
2.451,0,0,0,0,0,0
2.452,0,0,0,0,0,0
2.453,0,0,0,0,0,0
2.454,0.3125,0,0,0,0,0
2.455,0.625,0,0,0,0,0
2.456,0,0,0,0,0,0
2.457,-0.625,0,0,0,0,0
2.458,0.3125,0,0,0,0,0
2.459,0,0,0,0,0,0
2.46,0,0,0,0,0,0
2.461,0,0,0,0,0,0
2.462,-0.3125,0,0,0,0,0
2.463,0,0,0,0,0,0
2.464,-0.625,0,0,0,0,0
2.465,-1.25,0,0,0,0,0
2.466,-0.9375,0,0,0,0,0
2.467,-0.625,0,0,0,0,0
2.468,-0.625,0,0,0,0,0
2.469,-0.625,0,0,0,0,0
2.47,-0.9375,0,0,0,0,0
2.471,-1.25,0,0,0,0,0
2.472,-1.25,0,0,0,0,0
2.473,-1.25,0,0,0,0,0
2.474,-0.9375,0,0,0,0,0
2.475,-0.625,0,0,0,0,0
2.476,-0.9375,0,0,0,0,0
2.477,-0.625,0,0,0,0,0
2.478,-0.9375,0,0,0,0,0
2.479,-0.625,0,0,0,0,0
2.48,-0.9375,0,0,0,0,0
2.481,-1.25,0,0,0,0,0
2.482,-1.5625,0,0,0,0,0
2.483,-1.875,0,0,0,0,0
2.484,-0.9375,0,0,0,0,0
2.485,-1.25,0,0,0,0,0
2.486,-0.9375,0,0,0,0,0
2.487,-0.625,0,0,0,0,0
2.488,-0.625,0,0,0,0,0
2.489,-0.625,0,0,0,0,0
2.49,-0.625,0,0,0,0,0
2.491,-0.625,0,0,0,0,0
2.492,-0.625,0,0,0,0,0
2.493,-0.625,0,0,0,0,0
2.494,-1.25,0,0,0,0,0
2.495,-1.25,0,0,0,0,0
2.496,-0.9375,0,0,0,0,0
2.497,-1.25,0,0,0,0,0
2.498,-1.25,0,0,0,0,0
2.499,-1.25,0,0,0,0,0
2.5,-0.9375,0,0,0,0,0
2.501,-0.625,0,0,0,0,0
2.502,-0.9375,0,0,0,0,0
2.503,-1.25,0,0,0,0,0
2.504,-0.9375,0,0,0,0,0
2.505,-0.625,0,0,0,0,0
2.506,-0.625,0,0,0,0,0
2.507,-0.625,0,0,0,0,0
2.508,-0.625,0,0,0,0,0
2.509,-0.625,0,0,0,0,0
2.51,-0.625,0,0,0,0,0
2.511,-0.625,0,0,0,0,0
2.512,-1.5625,0,0,0,0,0
2.513,-1.25,0,0,0,0,0
2.514,-0.625,0,0,0,0,0
2.515,-0.625,0,0,0,0,0
2.516,-0.9375,0,0,0,0,0
2.517,-1.25,0,0,0,0,0
2.518,-0.625,0,0,0,0,0
2.519,-1.25,0,0,0,0,0
2.52,-1.25,0,0,0,0,0
2.521,-1.25,0,0,0,0,0
2.522,-1.25,0,0,0,0,0
2.523,-1.25,0,0,0,0,0
2.524,-0.625,0,0,0,0,0
2.525,-1.25,0,0,0,0,0
2.526,-0.625,0,0,0,0,0
2.527,-0.625,0,0,0,0,0
2.528,-0.625,0,0,0,0,0
2.529,-0.625,0,0,0,0,0
2.53,-0.625,0,0,0,0,0
2.531,-0.625,0,0,0,0,0
2.532,-0.625,0,0,0,0,0
2.533,-1.25,0,0,0,0,0
2.534,-1.25,0,0,0,0,0
2.535,-1.25,0,0,0,0,0
2.536,-1.25,0,0,0,0,0
2.537,-1.875,0,0,0,0,0
2.538,-1.875,0,0,0,0,0
2.539,-1.875,0,0,0,0,0
2.54,-1.5625,0,0,0,0,0
2.541,-1.25,0,0,0,0,0
2.542,-1.25,0,0,0,0,0
2.543,-1.25,0,0,0,0,0
2.544,-1.25,0,0,0,0,0
2.545,-1.25,0,0,0,0,0
2.546,-1.25,0,0,0,0,0
2.547,-1.25,0,0,0,0,0
2.548,-0.9375,0,0,0,0,0
2.549,-0.625,0,0,0,0,0
2.55,-0.9375,0,0,0,0,0
2.551,-0.625,0,0,0,0,0
2.552,-1.25,0,0,0,0,0
2.553,-1.25,0,0,0,0,0
2.554,-1.25,0,0,0,0,0
2.555,-1.25,0,0,0,0,0
2.556,-1.25,0,0,0,0,0
2.557,-1.25,0,0,0,0,0
2.558,-1.25,0,0,0,0,0
2.559,-1.25,0,0,0,0,0
2.56,-1.5625,0,0,0,0,0
2.561,-1.875,0,0,0,0,0
2.562,-2.5,0,0,0,0,0
2.563,-2.5,0,0,0,0,0
2.564,-1.875,0,0,0,0,0
2.565,-2.5,0,0,0,0,0
2.566,-1.25,0,0,0,0,0
2.567,-0.625,0,0,0,0,0
2.568,-1.25,0,0,0,0,0
2.569,-1.25,0,0,0,0,0
2.57,-1.25,0,0,0,0,0
2.571,-1.25,0,0,0,0,0
2.572,-1.25,0,0,0,0,0
2.573,-0.625,0,0,0,0,0
2.574,-0.625,0,0,0,0,0
2.575,-0.625,0,0,0,0,0
2.576,-0.625,0,0,0,0,0
2.577,-0.625,0,0,0,0,0
2.578,-0.3125,0,0,0,0,0
2.579,-0.625,0,0,0,0,0
2.58,-0.9375,0,0,0,0,0
2.581,-0.625,0,0,0,0,0
2.582,-0.9375,0,0,0,0,0
2.583,-1.25,0,0,0,0,0
2.584,-2.1875,0,0,0,0,0
2.585,-1.875,0,0,0,0,0
2.586,-1.5625,0,0,0,0,0
2.587,-1.25,0,0,0,0,0
2.588,-1.25,0,0,0,0,0
2.589,-1.25,0,0,0,0,0
2.59,-0.625,0,0,0,0,0
2.591,-1.25,0,0,0,0,0
2.592,-1.25,0,0,0,0,0
2.593,-1.25,0,0,0,0,0
2.594,-0.9375,0,0,0,0,0
2.595,-0.625,0,0,0,0,0
2.596,-0.625,0,0,0,0,0
2.597,-0.625,0,0,0,0,0
2.598,-0.625,0,0,0,0,0
2.599,-0.625,0,0,0,0,0
2.6,-0.625,0,0,0,0,0
2.601,-0.625,0,0,0,0,0
2.602,-0.625,0,0,0,0,0
2.603,-0.625,0,0,0,0,0
2.604,0,0,0,0,0,0
2.605,0,0,0,0,0,0
2.606,-0.625,0,0,0,0,0
2.607,-0.625,0,0,0,0,0
2.608,-0.3125,0,0,0,0,0
2.609,0,0,0,0,0,0
2.61,-0.625,0,0,0,0,0
2.611,-0.625,0,0,0,0,0
2.612,-1.25,0,0,0,0,0
2.613,-1.25,0,0,0,0,0
2.614,-0.9375,0,0,0,0,0
2.615,-0.625,0,0,0,0,0
2.616,-0.3125,0,0,0,0,0
2.617,0,0,0,0,0,0
2.618,-0.3125,0,0,0,0,0
2.619,-0.625,0,0,0,0,0
2.62,-0.3125,0,0,0,0,0
2.621,-0.625,0,0,0,0,0
2.622,-0.625,0,0,0,0,0
2.623,-0.625,0,0,0,0,0
2.624,-1.5625,0,0,0,0,0
2.625,-1.875,0,0,0,0,0
2.626,-0.9375,0,0,0,0,0
2.627,-0.625,0,0,0,0,0
2.628,0,0,0,0,0,0
2.629,0,0,0,0,0,0
2.63,0,0,0,0,0,0
2.631,0,0,0,0,0,0
2.632,0,0,0,0,0,0
2.633,0.625,0,0,0,0,0
2.634,0.625,0,0,0,0,0
2.635,0.625,0,0,0,0,0
2.636,0,0,0,0,0,0
2.637,0.625,0,0,0,0,0
2.638,0.9375,0,0,0,0,0
2.639,1.25,0,0,0,0,0
2.64,0.625,0,0,0,0,0
2.641,0.625,0,0,0,0,0
2.642,0.625,0,0,0,0,0
2.643,0.625,0,0,0,0,0
2.644,0.625,0,0,0,0,0
2.645,0.625,0,0,0,0,0
2.646,0.625,0,0,0,0,0
2.647,0.625,0,0,0,0,0
2.648,0,0,0,0,0,0
2.649,0,0,0,0,0,0
2.65,-0.3125,0,0,0,0,0
2.651,0,0,0,0,0,0
2.652,0.3125,0,0,0,0,0
2.653,0.625,0,0,0,0,0
2.654,0,0,0,0,0,0
2.655,0,0,0,0,0,0
2.656,0.3125,0,0,0,0,0
2.657,0,0,0,0,0,0
2.658,0.3125,0,0,0,0,0
2.659,0.625,0,0,0,0,0
2.66,0.625,0,0,0,0,0
2.661,1.25,0,0,0,0,0
2.662,1.25,0,0,0,0,0
2.663,0.625,0,0,0,0,0
2.664,0.625,0,0,0,0,0
2.665,0.625,0,0,0,0,0
2.666,0.625,0,0,0,0,0
2.667,0.625,0,0,0,0,0
2.668,0.9375,0,0,0,0,0
2.669,1.25,0,0,0,0,0
2.67,0.9375,0,0,0,0,0
2.671,0.625,0,0,0,0,0
2.672,0.9375,0,0,0,0,0
2.673,1.25,0,0,0,0,0
2.674,1.25,0,0,0,0,0
2.675,1.25,0,0,0,0,0
2.676,1.25,0,0,0,0,0
2.677,1.25,0,0,0,0,0
2.678,0.9375,0,0,0,0,0
2.679,0.625,0,0,0,0,0
2.68,0.9375,0,0,0,0,0
2.681,1.25,0,0,0,0,0
2.682,0.9375,0,0,0,0,0
2.683,0.625,0,0,0,0,0
2.684,0.625,0,0,0,0,0
2.685,0.625,0,0,0,0,0
2.686,0.625,0,0,0,0,0
2.687,1.25,0,0,0,0,0
2.688,0.625,0,0,0,0,0
2.689,0.625,0,0,0,0,0
2.69,0.3125,0,0,0,0,0
2.691,0,0,0,0,0,0
2.692,-0.3125,0,0,0,0,0
2.693,0,0,0,0,0,0
2.694,0.625,0,0,0,0,0
2.695,1.25,0,0,0,0,0
2.696,1.25,0,0,0,0,0
2.697,1.25,0,0,0,0,0
2.698,1.25,0,0,0,0,0
2.699,1.25,0,0,0,0,0
2.7,1.875,0,0,0,0,0
2.701,1.875,0,0,0,0,0
2.702,2.1875,0,0,0,0,0
2.703,1.875,0,0,0,0,0
2.704,2.1875,0,0,0,0,0
2.705,2.5,0,0,0,0,0
2.706,2.1875,0,0,0,0,0
2.707,1.875,0,0,0,0,0
2.708,2.1875,0,0,0,0,0
2.709,2.5,0,0,0,0,0
2.71,1.5625,0,0,0,0,0
2.711,1.25,0,0,0,0,0
2.712,0.9375,0,0,0,0,0
2.713,1.25,0,0,0,0,0
2.714,1.25,0,0,0,0,0
2.715,1.25,0,0,0,0,0
2.716,1.25,0,0,0,0,0
2.717,0.625,0,0,0,0,0
2.718,0.9375,0,0,0,0,0
2.719,1.25,0,0,0,0,0
2.72,1.25,0,0,0,0,0
2.721,1.25,0,0,0,0,0
2.722,1.875,0,0,0,0,0
2.723,1.25,0,0,0,0,0
2.724,1.5625,0,0,0,0,0
2.725,1.875,0,0,0,0,0
2.726,1.5625,0,0,0,0,0
2.727,1.25,0,0,0,0,0
2.728,1.5625,0,0,0,0,0
2.729,1.875,0,0,0,0,0
2.73,1.5625,0,0,0,0,0
2.731,1.875,0,0,0,0,0
2.732,1.875,0,0,0,0,0
2.733,1.875,0,0,0,0,0
2.734,1.875,0,0,0,0,0
2.735,1.875,0,0,0,0,0
2.736,1.5625,0,0,0,0,0
2.737,1.25,0,0,0,0,0
2.738,0.9375,0,0,0,0,0
2.739,1.25,0,0,0,0,0
2.74,1.875,0,0,0,0,0
2.741,1.875,0,0,0,0,0
2.742,1.25,0,0,0,0,0
2.743,1.875,0,0,0,0,0
2.744,2.5,0,0,0,0,0
2.745,3.125,0,0,0,0,0
2.746,2.1875,0,0,0,0,0
2.747,2.5,0,0,0,0,0
2.748,2.5,0,0,0,0,0
2.749,2.5,0,0,0,0,0
2.75,2.5,0,0,0,0,0
2.751,1.875,0,0,0,0,0
2.752,2.5,0,0,0,0,0
2.753,2.5,0,0,0,0,0
2.754,2.8125,0,0,0,0,0
2.755,3.125,0,0,0,0,0
2.756,3.125,0,0,0,0,0
2.757,2.5,0,0,0,0,0
2.758,2.8125,0,0,0,0,0
2.759,2.5,0,0,0,0,0
2.76,2.5,0,0,0,0,0
2.761,3.125,0,0,0,0,0
2.762,2.5,0,0,0,0,0
2.763,2.5,0,0,0,0,0
2.764,2.5,0,0,0,0,0
2.765,2.5,0,0,0,0,0
2.766,2.8125,0,0,0,0,0
2.767,3.125,0,0,0,0,0
2.768,3.125,0,0,0,0,0
2.769,3.125,0,0,0,0,0
2.77,1.875,0,0,0,0,0
2.771,1.875,0,0,0,0,0
2.772,1.5625,0,0,0,0,0
2.773,1.25,0,0,0,0,0
2.774,1.5625,0,0,0,0,0
2.775,1.875,0,0,0,0,0
2.776,1.5625,0,0,0,0,0
2.777,1.25,0,0,0,0,0
2.778,1.5625,0,0,0,0,0
2.779,1.875,0,0,0,0,0
2.78,2.1875,0,0,0,0,0
2.781,2.5,0,0,0,0,0
2.782,2.8125,0,0,0,0,0
2.783,3.125,0,0,0,0,0
2.784,3.4375,0,0,0,0,0
2.785,3.75,0,0,0,0,0
2.786,3.75,0,0,0,0,0
2.787,3.75,0,0,0,0,0
2.788,3.4375,0,0,0,0,0
2.789,3.125,0,0,0,0,0
2.79,4.0625,0,0,0,0,0
2.791,3.75,0,0,0,0,0
2.792,3.125,0,0,0,0,0
2.793,3.125,0,0,0,0,0
2.794,3.4375,0,0,0,0,0
2.795,3.75,0,0,0,0,0
2.796,3.4375,0,0,0,0,0
2.797,3.125,0,0,0,0,0
2.798,3.125,0,0,0,0,0
2.799,3.125,0,0,0,0,0
2.8,3.125,0,0,0,0,0
2.801,3.125,0,0,0,0,0
2.802,2.8125,0,0,0,0,0
2.803,2.5,0,0,0,0,0
2.804,1.875,0,0,0,0,0
2.805,1.875,0,0,0,0,0
2.806,2.5,0,0,0,0,0
2.807,3.125,0,0,0,0,0
2.808,3.4375,0,0,0,0,0
2.809,3.75,0,0,0,0,0
2.81,3.125,0,0,0,0,0
2.811,3.125,0,0,0,0,0
2.812,3.4375,0,0,0,0,0
2.813,3.125,0,0,0,0,0
2.814,3.125,0,0,0,0,0
2.815,3.125,0,0,0,0,0
2.816,3.75,0,0,0,0,0
2.817,3.125,0,0,0,0,0
2.818,3.125,0,0,0,0,0
2.819,3.125,0,0,0,0,0
2.82,3.4375,0,0,0,0,0
2.821,4.375,0,0,0,0,0
2.822,3.75,0,0,0,0,0
2.823,4.375,0,0,0,0,0
2.824,4.375,0,0,0,0,0
2.825,4.375,0,0,0,0,0
2.826,4.0625,0,0,0,0,0
2.827,3.75,0,0,0,0,0
2.828,4.0625,0,0,0,0,0
2.829,4.375,0,0,0,0,0
2.83,4.375,0,0,0,0,0
2.831,4.375,0,0,0,0,0
2.832,4.6875,0,0,0,0,0
2.833,5,0,0,0,0,0
2.834,5.625,0,0,0,0,0
2.835,5,0,0,0,0,0
2.836,5,0,0,0,0,0
2.837,5,0,0,0,0,0
2.838,4.6875,0,0,0,0,0
2.839,4.375,0,0,0,0,0
2.84,4.375,0,0,0,0,0
2.841,4.375,0,0,0,0,0
2.842,4.0625,0,0,0,0,0
2.843,3.75,0,0,0,0,0
2.844,4.6875,0,0,0,0,0
2.845,5,0,0,0,0,0
2.846,5.3125,0,0,0,0,0
2.847,5.625,0,0,0,0,0
2.848,5.3125,0,0,0,0,0
2.849,5,0,0,0,0,0
2.85,5.3125,0,0,0,0,0
2.851,5.625,0,0,0,0,0
2.852,5.625,0,0,0,0,0
2.853,5.625,0,0,0,0,0
2.854,5.625,0,0,0,0,0
2.855,6.25,0,0,0,0,0
2.856,6.25,0,0,0,0,0
2.857,6.25,0,0,0,0,0
2.858,6.25,0,0,0,0,0
2.859,6.25,0,0,0,0,0
2.86,5.9375,0,0,0,0,0
2.861,5.625,0,0,0,0,0
2.862,5.625,0,0,0,0,0
2.863,6.25,0,0,0,0,0
2.864,5.9375,0,0,0,0,0
2.865,6.25,0,0,0,0,0
2.866,6.25,0,0,0,0,0
2.867,6.25,0,0,0,0,0
2.868,6.25,0,0,0,0,0
2.869,6.25,0,0,0,0,0
2.87,5.3125,0,0,0,0,0
2.871,5,0,0,0,0,0
2.872,5,0,0,0,0,0
2.873,5,0,0,0,0,0
2.874,5,0,0,0,0,0
2.875,5,0,0,0,0,0
2.876,4.375,0,0,0,0,0
2.877,4.375,0,0,0,0,0
2.878,4.6875,0,0,0,0,0
2.879,5,0,0,0,0,0
2.88,5,0,0,0,0,0
2.881,5,0,0,0,0,0
2.882,4.6875,0,0,0,0,0
2.883,4.375,0,0,0,0,0
2.884,4.375,0,0,0,0,0
2.885,4.375,0,0,0,0,0
2.886,4.0625,0,0,0,0,0
2.887,3.75,0,0,0,0,0
2.888,4.375,0,0,0,0,0
2.889,5,0,0,0,0,0
2.89,4.375,0,0,0,0,0
2.891,4.375,0,0,0,0,0
2.892,5,0,0,0,0,0
2.893,4.375,0,0,0,0,0
2.894,4.375,0,0,0,0,0
2.895,4.375,0,0,0,0,0
2.896,4.0625,0,0,0,0,0
2.897,3.125,0,0,0,0,0
2.898,3.75,0,0,0,0,0
2.899,3.75,0,0,0,0,0
2.9,3.75,0,0,0,0,0
2.901,3.75,0,0,0,0,0
2.902,3.4375,0,0,0,0,0
2.903,3.125,0,0,0,0,0
2.904,3.125,0,0,0,0,0
2.905,3.75,0,0,0,0,0
2.906,3.4375,0,0,0,0,0
2.907,3.125,0,0,0,0,0
2.908,3.4375,0,0,0,0,0
2.909,3.75,0,0,0,0,0
2.91,3.75,0,0,0,0,0
2.911,3.125,0,0,0,0,0
2.912,3.125,0,0,0,0,0
2.913,3.125,0,0,0,0,0
2.914,4.0625,0,0,0,0,0
2.915,3.75,0,0,0,0,0
2.916,4.375,0,0,0,0,0
2.917,3.75,0,0,0,0,0
2.918,3.75,0,0,0,0,0
2.919,3.75,0,0,0,0,0
2.92,2.8125,0,0,0,0,0
2.921,3.125,0,0,0,0,0
2.922,3.4375,0,0,0,0,0
2.923,3.125,0,0,0,0,0
2.924,3.75,0,0,0,0,0
2.925,3.125,0,0,0,0,0
2.926,3.4375,0,0,0,0,0
2.927,3.75,0,0,0,0,0
2.928,3.125,0,0,0,0,0
2.929,2.5,0,0,0,0,0
2.93,1.875,0,0,0,0,0
2.931,1.875,0,0,0,0,0
2.932,1.875,0,0,0,0,0
2.933,1.875,0,0,0,0,0
2.934,2.1875,0,0,0,0,0
2.935,2.5,0,0,0,0,0
2.936,2.8125,0,0,0,0,0
2.937,3.125,0,0,0,0,0
2.938,2.1875,0,0,0,0,0
2.939,2.5,0,0,0,0,0
2.94,2.5,0,0,0,0,0
2.941,2.5,0,0,0,0,0
2.942,2.8125,0,0,0,0,0
2.943,3.125,0,0,0,0,0
2.944,2.1875,0,0,0,0,0
2.945,1.875,0,0,0,0,0
2.946,2.1875,0,0,0,0,0
2.947,3.125,0,0,0,0,0
2.948,2.1875,0,0,0,0,0
2.949,2.5,0,0,0,0,0
2.95,2.5,0,0,0,0,0
2.951,1.875,0,0,0,0,0
2.952,2.5,0,0,0,0,0
2.953,2.5,0,0,0,0,0
2.954,2.5,0,0,0,0,0
2.955,1.875,0,0,0,0,0
2.956,2.5,0,0,0,0,0
2.957,2.5,0,0,0,0,0
2.958,2.5,0,0,0,0,0
2.959,2.5,0,0,0,0,0
2.96,1.875,0,0,0,0,0
2.961,1.875,0,0,0,0,0
2.962,1.5625,0,0,0,0,0
2.963,1.875,0,0,0,0,0
2.964,1.5625,0,0,0,0,0
2.965,1.875,0,0,0,0,0
2.966,1.875,0,0,0,0,0
2.967,1.875,0,0,0,0,0
2.968,1.875,0,0,0,0,0
2.969,1.875,0,0,0,0,0
2.97,1.5625,0,0,0,0,0
2.971,1.25,0,0,0,0,0
2.972,1.875,0,0,0,0,0
2.973,1.875,0,0,0,0,0
2.974,1.25,0,0,0,0,0
2.975,1.25,0,0,0,0,0
2.976,1.25,0,0,0,0,0
2.977,1.25,0,0,0,0,0
2.978,1.25,0,0,0,0,0
2.979,1.25,0,0,0,0,0
2.98,0.9375,0,0,0,0,0
2.981,1.25,0,0,0,0,0
2.982,1.25,0,0,0,0,0
2.983,1.25,0,0,0,0,0
2.984,1.25,0,0,0,0,0
2.985,1.25,0,0,0,0,0
2.986,1.5625,0,0,0,0,0
2.987,1.25,0,0,0,0,0
2.988,1.875,0,0,0,0,0
2.989,1.875,0,0,0,0,0
2.99,1.875,0,0,0,0,0
2.991,1.875,0,0,0,0,0
2.992,1.5625,0,0,0,0,0
2.993,1.875,0,0,0,0,0
2.994,2.1875,0,0,0,0,0
2.995,2.5,0,0,0,0,0
2.996,2.1875,0,0,0,0,0
2.997,1.875,0,0,0,0,0
2.998,2.5,0,0,0,0,0
2.999,3.125,0,0,0,0,0
3,3.125,0,0,0,0,0
3.001,3.125,0,0,0,0,0
3.002,3.125,0,0,0,0,0
3.003,3.75,0,0,0,0,0
3.004,3.4375,0,0,0,0,0
3.005,3.75,1,0,0,0,0
3.006,4.0625,0,0,0,0,0
3.007,5,0,0,0,0,0
3.008,5.625,0,0,0,0,0
3.009,6.25,0,0,0,0,0
3.01,5.625,0,0,0,0,0
3.011,6.25,0,0,0,0,0
3.012,6.875,0,0,0,0,0
3.013,8.125,0,0,0,0,0
3.014,8.75,0,0,0,0,0
3.015,10,0,0,0,0,0
3.016,10.625,0,0,0,0,0
3.017,11.875,0,0,0,0,0
3.018,13.75,0,0,0,0,0
3.019,16.25,0,0,0,0,0
3.02,18.125,0,0,0,0,0
3.021,20,0,0,0,0,0
3.022,22.188,0,0,0,0,0
3.023,25,0,0,0,0,0
3.024,26.875,0,0,0,0,0
3.025,29.375,0,0,0,0,0
3.026,31.563,0,0,0,0,0
3.027,35.625,0,0,0,0,0
3.028,38.75,0,0,0,0,0
3.029,42.5,0,0,0,0,0
3.03,45.938,0,0,0,0,0
3.031,50,0,0,0,0,0
3.032,53.75,0,0,0,0,0
3.033,57.5,0,0,0,0,0
3.034,61.563,0,0,0,0,0
3.035,65.625,0,0,0,0,0
3.036,68.125,0,0,0,0,0
3.037,71.25,0,0,0,0,0
3.038,73.75,0,0,0,0,0
3.039,76.875,0,0,0,0,0
3.04,79.688,0,0,0,0,0
3.041,81.875,0,0,0,0,0
3.042,81.25,0,0,0,0,0
3.043,81.25,0,0,0,0,0
3.044,81.563,0,0,0,0,0
3.045,82.5,0,0,0,0,0
3.046,83.438,0,1,0,0,0
3.047,85,0,0,0,0,0
3.048,84.063,0,0,0,0,0
3.049,82.5,0,0,0,0,0
3.05,79.375,0,0,0,0,0
3.051,72.5,0,0,0,0,0
3.052,62.5,0,0,0,0,0
3.053,53.75,0,0,0,0,0
3.054,48.125,0,0,0,0,0
3.055,42.5,0,0,0,0,0
3.056,38.125,0,0,0,0,0
3.057,33.125,0,0,0,0,0
3.058,26.25,0,0,0,0,0
3.059,18.125,0,0,0,0,0
3.06,9.6875,0,0,0,0,0
3.061,2.5,0,0,0,0,0
3.062,-3.125,0,0,0,0,0
3.063,-8.125,0,0,0,0,0
3.064,-12.813,0,0,0,0,0
3.065,-16.25,0,0,0,0,0
3.066,-17.188,0,0,0,0,0
3.067,-18.125,0,0,0,0,0
3.068,-18.438,0,0,0,0,0
3.069,-19.375,0,0,0,0,0
3.07,-19.688,0,0,0,0,0
3.071,-19.375,0,0,0,0,0
3.072,-18.125,0,0,0,0,0
3.073,-16.25,0,0,0,0,0
3.074,-13.438,0,0,0,0,0
3.075,-11.875,0,0,0,0,0
3.076,-11.563,0,0,0,0,0
3.077,-11.875,0,0,0,0,0
3.078,-10.313,0,0,0,0,0
3.079,-9.375,0,0,0,0,0
3.08,-7.8125,0,0,0,0,0
3.081,-6.25,0,0,1,0,0
3.082,-6.25,0,0,0,0,0
3.083,-5.625,0,0,0,0,0
3.084,-5.3125,0,0,0,0,0
3.085,-5.625,0,0,0,0,0
3.086,-5.3125,0,0,0,0,0
3.087,-5,0,0,0,0,0
3.088,-5.3125,0,0,0,0,0
3.089,-5.625,0,0,0,0,0
3.09,-5,0,0,0,0,0
3.091,-5.625,0,0,0,0,0
3.092,-5,0,0,0,0,0
3.093,-4.375,0,0,0,0,0
3.094,-4.375,0,0,0,0,0
3.095,-4.375,0,0,0,0,0
3.096,-4.375,0,0,0,0,0
3.097,-4.375,0,0,0,0,0
3.098,-4.0625,0,0,0,0,0
3.099,-4.375,0,0,0,0,0
3.1,-4.0625,0,0,0,0,0
3.101,-4.375,0,0,0,0,0
3.102,-4.0625,0,0,0,0,0
3.103,-4.375,0,0,0,0,0
3.104,-4.375,0,0,0,0,0
3.105,-4.375,0,0,0,0,0
3.106,-4.375,0,0,0,0,0
3.107,-4.375,0,0,0,0,0
3.108,-4.375,0,0,0,0,0
3.109,-4.375,0,0,0,0,0
3.11,-4.375,0,0,0,0,0
3.111,-4.375,0,0,0,0,0
3.112,-4.375,0,0,0,0,0
3.113,-4.375,0,0,0,0,0
3.114,-4.0625,0,0,0,0,0
3.115,-3.75,0,0,0,0,0
3.116,-3.75,0,0,0,0,0
3.117,-3.75,0,0,0,0,0
3.118,-3.75,0,0,0,0,0
3.119,-4.375,0,0,0,0,0
3.12,-4.6875,0,0,0,0,0
3.121,-5,0,0,0,0,0
3.122,-4.375,0,0,0,0,0
3.123,-4.375,0,0,0,0,0
3.124,-4.375,0,0,0,0,0
3.125,-4.375,0,0,0,0,0
3.126,-4.6875,0,0,0,0,0
3.127,-4.375,0,0,0,0,0
3.128,-4.375,0,0,0,0,0
3.129,-5,0,0,0,0,0
3.13,-5,0,0,0,0,0
3.131,-5,0,0,0,0,0
3.132,-4.6875,0,0,0,0,0
3.133,-4.375,0,0,0,0,0
3.134,-4.0625,0,0,0,0,0
3.135,-3.75,0,0,0,0,0
3.136,-3.75,0,0,0,0,0
3.137,-4.375,0,0,0,0,0
3.138,-4.0625,0,0,0,0,0
3.139,-3.75,0,0,0,0,0
3.14,-3.75,0,0,0,0,0
3.141,-3.75,0,0,0,0,0
3.142,-3.4375,0,0,0,0,0
3.143,-3.75,0,0,0,0,0
3.144,-3.4375,0,0,0,0,0
3.145,-3.75,0,0,0,0,0
3.146,-4.375,0,0,0,0,0
3.147,-5,0,0,0,0,0
3.148,-4.375,0,0,0,0,0
3.149,-4.375,0,0,0,0,0
3.15,-4.375,0,0,0,0,0
3.151,-5,0,0,0,0,0
3.152,-5,0,0,0,0,0
3.153,-5,0,0,0,0,0
3.154,-4.6875,0,0,0,0,0
3.155,-4.375,0,0,0,0,0
3.156,-5,0,0,0,0,0
3.157,-5.625,0,0,0,0,0
3.158,-5.625,0,0,0,0,0
3.159,-5.625,0,0,0,0,0
3.16,-5.3125,0,0,0,0,0
3.161,-5,0,0,0,0,0
3.162,-4.6875,0,0,0,0,0
3.163,-5,0,0,0,0,0
3.164,-5,0,0,0,0,0
3.165,-5,0,0,0,0,0
3.166,-5.3125,0,0,0,0,0
3.167,-5,0,0,0,0,0
3.168,-5,0,0,0,0,0
3.169,-5,0,0,0,0,0
3.17,-5,0,0,0,0,0
3.171,-5,0,0,0,0,0
3.172,-4.6875,0,0,0,0,0
3.173,-5,0,0,0,0,0
3.174,-5,0,0,0,0,0
3.175,-5,0,0,0,0,0
3.176,-5.3125,0,0,0,0,0
3.177,-5.625,0,0,0,0,0
3.178,-5.625,0,0,0,0,0
3.179,-5.625,0,0,0,0,0
3.18,-5,0,0,0,0,0
3.181,-5,0,0,0,0,0
3.182,-4.6875,0,0,0,0,0
3.183,-4.375,0,0,0,0,0
3.184,-5,0,0,0,0,0
3.185,-4.375,0,0,0,0,0
3.186,-5.625,0,0,0,0,0
3.187,-5.625,0,0,0,0,0
3.188,-5.3125,0,0,0,0,0
3.189,-5,0,0,0,0,0
3.19,-5.625,0,0,0,0,0
3.191,-5.625,0,0,0,0,0
3.192,-5.625,0,0,0,0,0
3.193,-5.625,0,0,0,0,0
3.194,-5.9375,0,0,0,0,0
3.195,-6.25,0,0,0,0,0
3.196,-6.25,0,0,0,0,0
3.197,-5.625,0,0,0,0,0
3.198,-5.625,0,0,0,0,0
3.199,-5.625,0,0,0,0,0
3.2,-5.625,0,0,0,0,0
3.201,-5.625,0,0,0,0,0
3.202,-5.3125,0,0,0,0,0
3.203,-5.625,0,0,0,0,0
3.204,-5.625,0,0,0,0,0
3.205,-5.625,0,0,0,0,0
3.206,-5.625,0,0,0,0,0
3.207,-5.625,0,0,0,0,0
3.208,-5.3125,0,0,0,0,0
3.209,-5,0,0,0,0,0
3.21,-4.6875,0,0,0,0,0
3.211,-5,0,0,0,0,0
3.212,-5.3125,0,0,0,0,0
3.213,-5.625,0,0,0,0,0
3.214,-5.625,0,0,0,0,0
3.215,-5.625,0,0,0,0,0
3.216,-5.9375,0,0,0,0,0
3.217,-6.25,0,0,0,0,0
3.218,-6.875,0,0,0,0,0
3.219,-6.25,0,0,0,0,0
3.22,-6.5625,0,0,0,0,0
3.221,-6.875,0,0,0,0,0
3.222,-6.875,0,0,0,0,0
3.223,-6.875,0,0,0,0,0
3.224,-6.875,0,0,0,0,0
3.225,-6.875,0,0,0,0,0
3.226,-6.5625,0,0,0,0,0
3.227,-6.25,0,0,0,0,0
3.228,-6.5625,0,0,0,0,0
3.229,-6.25,0,0,0,0,0
3.23,-6.875,0,0,0,0,0
3.231,-7.5,0,0,0,0,0
3.232,-7.5,0,0,0,0,0
3.233,-7.5,0,0,0,0,0
3.234,-7.5,0,0,0,0,0
3.235,-7.5,0,0,0,0,0
3.236,-7.1875,0,0,0,0,0
3.237,-6.875,0,0,0,0,0
3.238,-7.1875,0,0,0,0,0
3.239,-7.5,0,0,0,0,0
3.24,-7.1875,0,0,0,0,0
3.241,-6.875,0,0,0,0,0
3.242,-7.1875,0,0,0,0,0
3.243,-7.5,0,0,0,0,0
3.244,-8.125,0,0,0,0,0
3.245,-8.75,0,0,0,0,0
3.246,-8.75,0,0,0,0,0
3.247,-8.75,0,0,0,0,0
3.248,-9.0625,0,0,0,0,0
3.249,-9.375,0,0,0,0,0
3.25,-8.75,0,0,0,0,0
3.251,-8.75,0,0,0,0,0
3.252,-8.75,0,0,0,0,0
3.253,-8.75,0,0,0,0,0
3.254,-8.75,0,0,0,0,0
3.255,-8.75,0,0,0,0,0
3.256,-7.8125,0,0,0,0,0
3.257,-8.125,0,0,0,0,0
3.258,-8.125,0,0,0,0,0
3.259,-8.125,0,0,0,0,0
3.26,-8.125,0,0,0,0,0
3.261,-8.125,0,0,0,0,0
3.262,-8.125,0,0,0,0,0
3.263,-8.125,0,0,0,0,0
3.264,-9.375,0,0,0,0,0
3.265,-9.375,0,0,0,0,0
3.266,-9.0625,0,0,0,0,0
3.267,-8.75,0,0,0,0,0
3.268,-9.0625,0,0,0,0,0
3.269,-8.75,0,0,0,0,0
3.27,-9.0625,0,0,0,0,0
3.271,-9.375,0,0,0,0,0
3.272,-8.75,0,0,0,0,0
3.273,-9.375,0,0,0,0,0
3.274,-8.75,0,0,0,0,0
3.275,-8.75,0,0,0,0,0
3.276,-9.0625,0,0,0,0,0
3.277,-9.375,0,0,0,0,0
3.278,-9.0625,0,0,0,0,0
3.279,-9.375,0,0,0,0,0
3.28,-9.375,0,0,0,0,0
3.281,-10,0,0,0,0,0
3.282,-9.375,0,0,0,0,0
3.283,-9.375,0,0,0,0,0
3.284,-10,0,0,0,0,0
3.285,-10,0,0,0,0,0
3.286,-10,0,0,0,0,0
3.287,-10.625,0,0,0,0,0
3.288,-10.313,0,0,0,0,0
3.289,-10,0,0,0,0,0
3.29,-10,0,0,0,0,0
3.291,-10,0,0,0,0,0
3.292,-10,0,0,0,0,0
3.293,-10,0,0,0,0,0
3.294,-10,0,0,0,0,0
3.295,-10,0,0,0,0,0
3.296,-10.313,0,0,0,0,0
3.297,-10.625,0,0,0,0,0
3.298,-10.625,0,0,0,0,0
3.299,-10.625,0,0,0,0,0
3.3,-10.313,0,0,0,0,0
3.301,-10,0,0,0,0,0
3.302,-10,0,0,0,0,0
3.303,-10,0,0,0,0,0
3.304,-10.625,0,0,0,0,0
3.305,-10.625,0,0,0,0,0
3.306,-10.313,0,0,0,0,0
3.307,-10,0,0,0,0,0
3.308,-10,0,0,0,0,0
3.309,-10,0,0,0,0,0
3.31,-10,0,0,0,0,0
3.311,-10,0,0,0,0,0
3.312,-10.938,0,0,0,0,0
3.313,-10.625,0,0,0,0,0
3.314,-10.313,0,0,0,0,0
3.315,-10,0,0,0,0,0
3.316,-10,0,0,0,0,0
3.317,-11.25,0,0,0,0,0
3.318,-11.563,0,0,0,0,0
3.319,-11.875,0,0,0,0,0
3.32,-12.188,0,0,0,0,0
3.321,-12.5,0,0,0,0,0
3.322,-12.188,0,0,0,0,0
3.323,-12.5,0,0,0,0,0
3.324,-12.5,0,0,0,0,0
3.325,-12.5,0,0,0,0,0
3.326,-12.188,0,0,0,0,0
3.327,-11.875,0,0,0,0,0
3.328,-11.875,0,0,0,0,0
3.329,-11.875,0,0,0,0,0
3.33,-12.188,0,0,0,0,0
3.331,-12.5,0,0,0,0,0
3.332,-12.188,0,0,0,0,0
3.333,-12.5,0,0,0,0,0
3.334,-12.188,0,0,0,0,0
3.335,-11.875,0,0,0,0,0
3.336,-12.188,0,0,0,0,0
3.337,-12.5,0,0,0,0,0
3.338,-12.5,0,0,0,0,0
3.339,-12.5,0,0,0,0,0
3.34,-12.188,0,0,0,0,0
3.341,-11.875,0,0,0,0,0
3.342,-12.5,0,0,0,0,0
3.343,-12.5,0,0,0,0,0
3.344,-12.813,0,0,0,0,0
3.345,-13.125,0,0,0,0,0
3.346,-13.75,0,0,0,0,0
3.347,-14.375,0,0,0,0,0
3.348,-13.438,0,0,0,0,0
3.349,-13.75,0,0,0,0,0
3.35,-13.125,0,0,0,0,0
3.351,-12.5,0,0,0,0,0
3.352,-12.813,0,0,0,1,0
3.353,-13.125,0,0,0,0,0
3.354,-13.125,0,0,0,0,0
3.355,-12.5,0,0,0,0,0
3.356,-12.188,0,0,0,0,0
3.357,-11.875,0,0,0,0,0
3.358,-12.188,0,0,0,0,0
3.359,-12.5,0,0,0,0,0
3.36,-12.5,0,0,0,0,0
3.361,-12.5,0,0,0,0,0
3.362,-12.813,0,0,0,0,0
3.363,-13.125,0,0,0,0,0
3.364,-13.125,0,0,0,0,0
3.365,-13.125,0,0,0,0,0
3.366,-13.438,0,0,0,0,0
3.367,-13.125,0,0,0,0,0
3.368,-13.125,0,0,0,0,0
3.369,-13.125,0,0,0,0,0
3.37,-13.125,0,0,0,0,0
3.371,-13.125,0,0,0,0,0
3.372,-11.875,0,0,0,0,0
3.373,-11.25,0,0,0,0,0
3.374,-10.938,0,0,0,0,0
3.375,-10.625,0,0,0,0,0
3.376,-11.25,0,0,0,0,0
3.377,-11.875,0,0,0,0,0
3.378,-11.563,0,0,0,0,0
3.379,-11.875,0,0,0,0,0
3.38,-10.938,0,0,0,0,0
3.381,-10,0,0,0,0,0
3.382,-10,0,0,0,0,0
3.383,-10,0,0,0,0,0
3.384,-10.625,0,0,0,0,0
3.385,-10.625,0,0,0,0,0
3.386,-10.313,0,0,0,0,0
3.387,-9.375,0,0,0,0,0
3.388,-9.375,0,0,0,0,0
3.389,-8.75,0,0,0,0,0
3.39,-9.0625,0,0,0,0,0
3.391,-9.375,0,0,0,0,0
3.392,-8.75,0,0,0,0,0
3.393,-8.125,0,0,0,0,0
3.394,-7.8125,0,0,0,0,0
3.395,-8.125,0,0,0,0,0
3.396,-7.8125,0,0,0,0,0
3.397,-7.5,0,0,0,0,0
3.398,-7.5,0,0,0,0,0
3.399,-6.875,0,0,0,0,0
3.4,-6.25,0,0,0,0,0
3.401,-6.25,0,0,0,0,0
3.402,-5.3125,0,0,0,0,0
3.403,-5,0,0,0,0,0
3.404,-5.625,0,0,0,0,0
3.405,-5.625,0,0,0,0,0
3.406,-5.625,0,0,0,0,0
3.407,-5,0,0,0,0,0
3.408,-5,0,0,0,0,0
3.409,-5,0,0,0,0,0
3.41,-4.6875,0,0,0,0,0
3.411,-5,0,0,0,0,0
3.412,-5,0,0,0,0,0
3.413,-4.375,0,0,0,0,0
3.414,-4.0625,0,0,0,0,0
3.415,-3.75,0,0,0,0,0
3.416,-2.8125,0,0,0,0,0
3.417,-3.125,0,0,0,0,0
3.418,-2.8125,0,0,0,0,0
3.419,-3.125,0,0,0,0,0
3.42,-3.125,0,0,0,0,0
3.421,-3.125,0,0,0,0,0
3.422,-2.5,0,0,0,0,0
3.423,-2.5,0,0,0,0,0
3.424,-2.5,0,0,0,0,0
3.425,-2.5,0,0,0,0,0
3.426,-1.875,0,0,0,0,0
3.427,-1.875,0,0,0,0,0
3.428,-1.5625,0,0,0,0,0
3.429,-1.875,0,0,0,0,0
3.43,-1.875,0,0,0,0,0
3.431,-1.875,0,0,0,0,0
3.432,-2.1875,0,0,0,0,0
3.433,-2.5,0,0,0,0,0
3.434,-2.1875,0,0,0,0,0
3.435,-1.875,0,0,0,0,0
3.436,-2.5,0,0,0,0,0
3.437,-2.5,0,0,0,0,0
3.438,-2.1875,0,0,0,0,0
3.439,-1.875,0,0,0,0,0
3.44,-1.25,0,0,0,0,0
3.441,-0.625,0,0,0,0,0
3.442,-0.9375,0,0,0,0,0
3.443,-0.625,0,0,0,0,0
3.444,-0.625,0,0,0,0,0
3.445,-0.625,0,0,0,0,0
3.446,-0.625,0,0,0,0,0
3.447,-0.625,0,0,0,0,0
3.448,-0.625,0,0,0,0,0
3.449,0,0,0,0,0,0
3.45,-0.9375,0,0,0,0,0
3.451,-0.625,0,0,0,0,0
3.452,-0.625,0,0,0,0,0
3.453,-0.625,0,0,0,0,0
3.454,-0.3125,0,0,0,0,0
3.455,0,0,0,0,0,0
3.456,-0.625,0,0,0,0,0
3.457,-0.625,0,0,0,0,0
3.458,-0.9375,0,0,0,0,0
3.459,-1.25,0,0,0,0,0
3.46,-1.5625,0,0,0,0,0
3.461,-1.875,0,0,0,0,0
3.462,-2.1875,0,0,0,0,0
3.463,-2.5,0,0,0,0,0
3.464,-2.1875,0,0,0,0,0
3.465,-1.875,0,0,0,0,0
3.466,-2.1875,0,0,0,0,0
3.467,-1.875,0,0,0,0,0
3.468,-2.1875,0,0,0,0,0
3.469,-2.5,0,0,0,0,0
3.47,-2.5,0,0,0,0,0
3.471,-2.5,0,0,0,0,0
3.472,-2.5,0,0,0,0,0
3.473,-1.875,0,0,0,0,0
3.474,-1.5625,0,0,0,0,0
3.475,-1.25,0,0,0,0,0
3.476,-1.5625,0,0,0,0,0
3.477,-1.875,0,0,0,0,0
3.478,-1.875,0,0,0,0,0
3.479,-2.5,0,0,0,0,0
3.48,-1.875,0,0,0,0,0
3.481,-1.875,0,0,0,0,0
3.482,-1.5625,0,0,0,0,0
3.483,-1.25,0,0,0,0,0
3.484,-2.1875,0,0,0,0,0
3.485,-1.875,0,0,0,0,0
3.486,-1.5625,0,0,0,0,0
3.487,-1.875,0,0,0,0,0
3.488,-2.1875,0,0,0,0,0
3.489,-2.5,0,0,0,0,0
3.49,-2.5,0,0,0,0,0
3.491,-3.125,0,0,0,0,0
3.492,-2.8125,0,0,0,0,0
3.493,-3.125,0,0,0,0,0
3.494,-3.125,0,0,0,0,0
3.495,-3.125,0,0,0,0,0
3.496,-2.8125,0,0,0,0,0
3.497,-2.5,0,0,0,0,0
3.498,-2.5,0,0,0,0,0
3.499,-2.5,0,0,0,0,0
3.5,-2.8125,0,0,0,0,0
3.501,-1.875,0,0,0,0,0
3.502,-2.1875,0,0,0,0,0
3.503,-2.5,0,0,0,0,0
3.504,-2.1875,0,0,0,0,0
3.505,-1.875,0,0,0,0,0
3.506,-1.875,0,0,0,0,0
3.507,-1.875,0,0,0,0,0
3.508,-1.5625,0,0,0,0,0
3.509,-1.25,0,0,0,0,0
3.51,-1.25,0,0,0,0,0
3.511,-1.25,0,0,0,0,0
3.512,-1.5625,0,0,0,0,0
3.513,-1.875,0,0,0,0,0
3.514,-1.5625,0,0,0,0,0
3.515,-1.875,0,0,0,0,0
3.516,-2.1875,0,0,0,0,0
3.517,-1.875,0,0,0,0,0
3.518,-1.5625,0,0,0,0,0
3.519,-1.875,0,0,0,0,0
3.52,-1.875,0,0,0,0,0
3.521,-1.875,0,0,0,0,1
3.522,-2.1875,0,0,0,0,0
3.523,-1.875,0,0,0,0,0
3.524,-2.5,0,0,0,0,0
3.525,-2.5,0,0,0,0,0
3.526,-2.8125,0,0,0,0,0
3.527,-2.5,0,0,0,0,0
3.528,-2.5,0,0,0,0,0
3.529,-2.5,0,0,0,0,0
3.53,-2.5,0,0,0,0,0
3.531,-2.5,0,0,0,0,0
3.532,-3.125,0,0,0,0,0
3.533,-3.125,0,0,0,0,0
3.534,-2.8125,0,0,0,0,0
3.535,-2.5,0,0,0,0,0
3.536,-2.5,0,0,0,0,0
3.537,-1.875,0,0,0,0,0
3.538,-2.1875,0,0,0,0,0
3.539,-1.25,0,0,0,0,0
3.54,-1.875,0,0,0,0,0
3.541,-1.875,0,0,0,0,0
3.542,-1.875,0,0,0,0,0
3.543,-1.875,0,0,0,0,0
3.544,-1.875,0,0,0,0,0
3.545,-1.875,0,0,0,0,0
3.546,-1.875,0,0,0,0,0
3.547,-1.875,0,0,0,0,0
3.548,-1.875,0,0,0,0,0
3.549,-1.25,0,0,0,0,0
3.55,-1.875,0,0,0,0,0
3.551,-1.875,0,0,0,0,0
3.552,-1.875,0,0,0,0,0
3.553,-2.5,0,0,0,0,0
3.554,-2.5,0,0,0,0,0
3.555,-2.5,0,0,0,0,0
3.556,-2.8125,0,0,0,0,0
3.557,-3.125,0,0,0,0,0
3.558,-3.125,0,0,0,0,0
3.559,-3.125,0,0,0,0,0
3.56,-3.125,0,0,0,0,0
3.561,-3.125,0,0,0,0,0
3.562,-3.125,0,0,0,0,0
3.563,-3.125,0,0,0,0,0
3.564,-3.4375,0,0,0,0,0
3.565,-3.75,0,0,0,0,0
3.566,-4.0625,0,0,0,0,0
3.567,-4.375,0,0,0,0,0
3.568,-3.75,0,0,0,0,0
3.569,-4.375,0,0,0,0,0
3.57,-4.375,0,0,0,0,0
3.571,-4.375,0,0,0,0,0
3.572,-4.0625,0,0,0,0,0
3.573,-3.75,0,0,0,0,0
3.574,-3.4375,0,0,0,0,0
3.575,-2.5,0,0,0,0,0
3.576,-3.125,0,0,0,0,0
3.577,-3.125,0,0,0,0,0
3.578,-3.125,0,0,0,0,0
3.579,-3.125,0,0,0,0,0
3.58,-3.125,0,0,0,0,0
3.581,-3.125,0,0,0,0,0
3.582,-3.125,0,0,0,0,0
3.583,-3.125,0,0,0,0,0
3.584,-3.125,0,0,0,0,0
3.585,-3.75,0,0,0,0,0
3.586,-4.375,0,0,0,0,0
3.587,-4.375,0,0,0,0,0
3.588,-4.0625,0,0,0,0,0
3.589,-3.75,0,0,0,0,0
3.59,-3.75,0,0,0,0,0
3.591,-3.75,0,0,0,0,0
3.592,-4.0625,0,0,0,0,0
3.593,-4.375,0,0,0,0,0
3.594,-4.0625,0,0,0,0,0
3.595,-3.75,0,0,0,0,0
3.596,-3.75,0,0,0,0,0
3.597,-3.75,0,0,0,0,0
3.598,-3.125,0,0,0,0,0
3.599,-2.5,0,0,0,0,0
3.6,-2.5,0,0,0,0,0
3.601,-2.5,0,0,0,0,0
3.602,-2.5,0,0,0,0,0
3.603,-3.125,0,0,0,0,0
3.604,-2.5,0,0,0,0,0
3.605,-2.5,0,0,0,0,0
3.606,-2.8125,0,0,0,0,0
3.607,-2.5,0,0,0,0,0
3.608,-2.8125,0,0,0,0,0
3.609,-2.5,0,0,0,0,0
3.61,-3.125,0,0,0,0,0
3.611,-3.125,0,0,0,0,0
3.612,-3.125,0,0,0,0,0
3.613,-3.125,0,0,0,0,0
3.614,-3.4375,0,0,0,0,0
3.615,-3.125,0,0,0,0,0
3.616,-4.0625,0,0,0,0,0
3.617,-3.75,0,0,0,0,0
3.618,-3.75,0,0,0,0,0
3.619,-3.75,0,0,0,0,0
3.62,-3.75,0,0,0,0,0
3.621,-3.75,0,0,0,0,0
3.622,-3.75,0,0,0,0,0
3.623,-3.75,0,0,0,0,0
3.624,-4.375,0,0,0,0,0
3.625,-4.375,0,0,0,0,0
3.626,-4.6875,0,0,0,0,0
3.627,-4.375,0,0,0,0,0
3.628,-4.0625,0,0,0,0,0
3.629,-3.75,0,0,0,0,0
3.63,-3.4375,0,0,0,0,0
3.631,-3.125,0,0,0,0,0
3.632,-2.8125,0,0,0,0,0
3.633,-2.5,0,0,0,0,0
3.634,-2.8125,0,0,0,0,0
3.635,-3.125,0,0,0,0,0
3.636,-3.125,0,0,0,0,0
3.637,-3.125,0,0,0,0,0
3.638,-3.125,0,0,0,0,0
3.639,-3.125,0,0,0,0,0
3.64,-3.4375,0,0,0,0,0
3.641,-3.75,0,0,0,0,0
3.642,-3.125,0,0,0,0,0
3.643,-3.75,0,0,0,0,0
3.644,-4.0625,0,0,0,0,0
3.645,-4.375,0,0,0,0,0
3.646,-4.375,0,0,0,0,0
3.647,-4.375,0,0,0,0,0
3.648,-3.75,0,0,0,0,0
3.649,-3.125,0,0,0,0,0
3.65,-3.125,0,0,0,0,0
3.651,-3.125,0,0,0,0,0
3.652,-3.125,0,0,0,0,0
3.653,-3.75,0,0,0,0,0
3.654,-3.75,0,0,0,0,0
3.655,-3.125,0,0,0,0,0
3.656,-4.0625,0,0,0,0,0
3.657,-3.75,0,0,0,0,0
3.658,-3.75,0,0,0,0,0
3.659,-4.375,0,0,0,0,0
3.66,-4.0625,0,0,0,0,0
3.661,-3.75,0,0,0,0,0
3.662,-4.375,0,0,0,0,0
3.663,-5,0,0,0,0,0
3.664,-4.0625,0,0,0,0,0
3.665,-3.75,0,0,0,0,0
3.666,-3.75,0,0,0,0,0
3.667,-3.75,0,0,0,0,0
3.668,-3.4375,0,0,0,0,0
3.669,-3.125,0,0,0,0,0
3.67,-3.75,0,0,0,0,0
3.671,-3.75,0,0,0,0,0
3.672,-3.125,0,0,0,0,0
3.673,-3.125,0,0,0,0,0
3.674,-2.8125,0,0,0,0,0
3.675,-3.125,0,0,0,0,0
3.676,-2.8125,0,0,0,0,0
3.677,-3.125,0,0,0,0,0
3.678,-2.8125,0,0,0,0,0
3.679,-2.5,0,0,0,0,0
3.68,-2.5,0,0,0,0,0
3.681,-1.875,0,0,0,0,0
3.682,-2.5,0,0,0,0,0
3.683,-2.5,0,0,0,0,0
3.684,-2.5,0,0,0,0,0
3.685,-2.5,0,0,0,0,0
3.686,-2.1875,0,0,0,0,0
3.687,-1.875,0,0,0,0,0
3.688,-1.875,0,0,0,0,0
3.689,-1.875,0,0,0,0,0
3.69,-2.1875,0,0,0,0,0
3.691,-2.5,0,0,0,0,0
3.692,-2.1875,0,0,0,0,0
3.693,-1.875,0,0,0,0,0
3.694,-2.5,0,0,0,0,0
3.695,-2.5,0,0,0,0,0
3.696,-2.5,0,0,0,0,0
3.697,-3.125,0,0,0,0,0
3.698,-3.4375,0,0,0,0,0
3.699,-3.75,0,0,0,0,0
3.7,-3.75,0,0,0,0,0
3.701,-4.375,0,0,0,0,0
3.702,-4.375,0,0,0,0,0
3.703,-4.375,0,0,0,0,0
3.704,-4.0625,0,0,0,0,0
3.705,-4.375,0,0,0,0,0
3.706,-4.375,0,0,0,0,0
3.707,-4.375,0,0,0,0,0
3.708,-4.375,0,0,0,0,0
3.709,-4.375,0,0,0,0,0
3.71,-4.375,0,0,0,0,0
3.711,-4.375,0,0,0,0,0
3.712,-4.375,0,0,0,0,0
3.713,-3.75,0,0,0,0,0
3.714,-3.4375,0,0,0,0,0
3.715,-3.75,0,0,0,0,0
3.716,-4.0625,0,0,0,0,0
3.717,-3.75,0,0,0,0,0
3.718,-4.0625,0,0,0,0,0
3.719,-3.75,0,0,0,0,0
3.72,-3.75,0,0,0,0,0
3.721,-3.75,0,0,0,0,0
3.722,-3.75,0,0,0,0,0
3.723,-3.75,0,0,0,0,0
3.724,-2.8125,0,0,0,0,0
3.725,-2.5,0,0,0,0,0
3.726,-2.1875,0,0,0,0,0
3.727,-2.5,0,0,0,0,0
3.728,-2.1875,0,0,0,0,0
3.729,-2.5,0,0,0,0,0
3.73,-2.5,0,0,0,0,0
3.731,-3.125,0,0,0,0,0
3.732,-3.125,0,0,0,0,0
3.733,-3.125,0,0,0,0,0
3.734,-3.125,0,0,0,0,0
3.735,-3.125,0,0,0,0,0
3.736,-2.8125,0,0,0,0,0
3.737,-2.5,0,0,0,0,0
3.738,-2.5,0,0,0,0,0
3.739,-3.125,0,0,0,0,0
3.74,-3.125,0,0,0,0,0
3.741,-3.125,0,0,0,0,0
3.742,-2.5,0,0,0,0,0
3.743,-2.5,0,0,0,0,0
3.744,-2.5,0,0,0,0,0
3.745,-2.5,0,0,0,0,0
3.746,-1.875,0,0,0,0,0
3.747,-0.625,0,0,0,0,0
3.748,-0.625,0,0,0,0,0
3.749,-0.625,0,0,0,0,0
3.75,-1.25,0,0,0,0,0
3.751,-1.25,0,0,0,0,0
3.752,-2.1875,0,0,0,0,0
3.753,-3.125,0,0,0,0,0
3.754,-3.125,0,0,0,0,0
3.755,-3.125,0,0,0,0,0
3.756,-2.5,0,0,0,0,0
3.757,-2.5,0,0,0,0,0
3.758,-3.125,0,0,0,0,0
3.759,-3.75,0,0,0,0,0
3.76,-3.4375,0,0,0,0,0
3.761,-3.75,0,0,0,0,0
3.762,-3.125,0,0,0,0,0
3.763,-2.5,0,0,0,0,0
3.764,-3.125,0,0,0,0,0
3.765,-3.125,0,0,0,0,0
3.766,-3.125,0,0,0,0,0
3.767,-3.125,0,0,0,0,0
3.768,-3.125,0,0,0,0,0
3.769,-2.5,0,0,0,0,0
3.77,-3.4375,0,0,0,0,0
3.771,-3.75,0,0,0,0,0
3.772,-3.4375,0,0,0,0,0
3.773,-3.125,0,0,0,0,0
3.774,-3.125,0,0,0,0,0
3.775,-3.125,0,0,0,0,0
3.776,-2.8125,0,0,0,0,0
3.777,-2.5,0,0,0,0,0
3.778,-1.875,0,0,0,0,0
3.779,-1.875,0,0,0,0,0
3.78,-1.5625,0,0,0,0,0
3.781,-1.25,0,0,0,0,0
3.782,-1.875,0,0,0,0,0
3.783,-2.5,0,0,0,0,0
3.784,-2.5,0,0,0,0,0
3.785,-3.125,0,0,0,0,0
3.786,-3.4375,0,0,0,0,0
3.787,-3.125,0,0,0,0,0
3.788,-3.125,0,0,0,0,0
3.789,-3.75,0,0,0,0,0
3.79,-2.8125,0,0,0,0,0
3.791,-2.5,0,0,0,0,0
3.792,-2.5,0,0,0,0,0
3.793,-3.125,0,0,0,0,0
3.794,-2.1875,0,0,0,0,0
3.795,-1.875,0,0,0,0,0
3.796,-1.875,0,0,0,0,0
3.797,-1.875,0,0,0,0,0
3.798,-2.5,0,0,0,0,0
3.799,-1.875,0,0,0,0,0
3.8,-1.875,0,0,0,0,0
3.801,-1.875,0,0,0,0,0
3.802,-1.5625,0,0,0,0,0
3.803,-1.25,0,0,0,0,0
3.804,-2.1875,0,0,0,0,0
3.805,-1.875,0,0,0,0,0
3.806,-2.1875,0,0,0,0,0
3.807,-2.5,0,0,0,0,0
3.808,-1.5625,0,0,0,0,0
3.809,-1.875,0,0,0,0,0
3.81,-1.875,0,0,0,0,0
3.811,-1.875,0,0,0,0,0
3.812,-1.5625,0,0,0,0,0
3.813,-1.25,0,0,0,0,0
3.814,-1.25,0,0,0,0,0
3.815,-1.25,0,0,0,0,0
3.816,-0.625,0,0,0,0,0
3.817,-0.625,0,0,0,0,0
3.818,-0.625,0,0,0,0,0
3.819,-1.25,0,0,0,0,0
3.82,-1.5625,0,0,0,0,0
3.821,-1.875,0,0,0,0,0
3.822,-1.5625,0,0,0,0,0
3.823,-1.25,0,0,0,0,0
3.824,-0.9375,0,0,0,0,0
3.825,-0.625,0,0,0,0,0
3.826,-1.25,0,0,0,0,0
3.827,-1.875,0,0,0,0,0
3.828,-1.875,0,0,0,0,0
3.829,-1.875,0,0,0,0,0
3.83,-1.875,0,0,0,0,0
3.831,-1.875,0,0,0,0,0
3.832,-2.1875,0,0,0,0,0
3.833,-2.5,0,0,0,0,0
3.834,-2.1875,0,0,0,0,0
3.835,-1.875,0,0,0,0,0
3.836,-1.875,0,0,0,0,0
3.837,-1.25,0,0,0,0,0
3.838,-1.5625,0,0,0,0,0
3.839,-1.25,0,0,0,0,0
3.84,-0.625,0,0,0,0,0
3.841,-0.625,0,0,0,0,0
3.842,-0.625,0,0,0,0,0
3.843,-0.625,0,0,0,0,0
3.844,-0.625,0,0,0,0,0
3.845,-0.625,0,0,0,0,0
3.846,-0.625,0,0,0,0,0
3.847,-0.625,0,0,0,0,0
3.848,-0.9375,0,0,0,0,0
3.849,-1.25,0,0,0,0,0
3.85,-0.625,0,0,0,0,0
3.851,-0.625,0,0,0,0,0
3.852,-1.25,0,0,0,0,0
3.853,-1.25,0,0,0,0,0
3.854,-0.625,0,0,0,0,0
3.855,-0.625,0,0,0,0,0
3.856,-0.3125,0,0,0,0,0
3.857,-0.625,0,0,0,0,0
3.858,-0.9375,0,0,0,0,0
3.859,-0.625,0,0,0,0,0
3.86,-0.625,0,0,0,0,0
3.861,-0.625,0,0,0,0,0
3.862,-0.3125,0,0,0,0,0
3.863,0.625,0,0,0,0,0
3.864,-0.3125,0,0,0,0,0
3.865,-0.625,0,0,0,0,0
3.866,-0.3125,0,0,0,0,0
3.867,0,0,0,0,0,0
3.868,0.9375,0,0,0,0,0
3.869,0.625,0,0,0,0,0
3.87,0.9375,0,0,0,0,0
3.871,0.625,0,0,0,0,0
3.872,0.9375,0,0,0,0,0
3.873,1.25,0,0,0,0,0
3.874,1.25,0,0,0,0,0
3.875,1.25,0,0,0,0,0
3.876,0.9375,0,0,0,0,0
3.877,0.625,0,0,0,0,0
3.878,0.625,0,0,0,0,0
3.879,0.625,0,0,0,0,0
3.88,0.625,0,0,0,0,0
3.881,1.25,0,0,0,0,0
3.882,0.625,0,0,0,0,0
3.883,0.625,0,0,0,0,0
3.884,0.3125,0,0,0,0,0
3.885,0,0,0,0,0,0
3.886,0,0,0,0,0,0
3.887,0,0,0,0,0,0
3.888,-0.3125,0,0,0,0,0
3.889,-0.625,0,0,0,0,0
3.89,-0.625,0,0,0,0,0
3.891,0,0,0,0,0,0
3.892,-0.3125,0,0,0,0,0
3.893,-0.625,0,0,0,0,0
3.894,-0.9375,0,0,0,0,0
3.895,-1.25,0,0,0,0,0
3.896,-1.25,0,0,0,0,0
3.897,-1.25,0,0,0,0,0
3.898,-0.625,0,0,0,0,0
3.899,0,0,0,0,0,0
3.9,0.3125,0,0,0,0,0
3.901,0.625,0,0,0,0,0
3.902,1.5625,0,0,0,0,0
3.903,1.875,0,0,0,0,0
3.904,1.5625,0,0,0,0,0
3.905,1.25,0,0,0,0,0
3.906,1.5625,0,0,0,0,0
3.907,1.875,0,0,0,0,0
3.908,1.875,0,0,0,0,0
3.909,1.875,0,0,0,0,0
3.91,2.8125,0,0,0,0,0
3.911,2.5,0,0,0,0,0
3.912,2.5,0,0,0,0,0
3.913,2.5,0,0,0,0,0
3.914,2.1875,0,0,0,0,0
3.915,1.875,0,0,0,0,0
3.916,2.1875,0,0,0,0,0
3.917,1.875,0,0,0,0,0
3.918,2.1875,0,0,0,0,0
3.919,2.5,0,0,0,0,0
3.92,2.5,0,0,0,0,0
3.921,2.5,0,0,0,0,0
3.922,2.5,0,0,0,0,0
3.923,1.875,0,0,0,0,0
3.924,1.875,0,0,0,0,0
3.925,1.875,0,0,0,0,0
3.926,1.5625,0,0,0,0,0
3.927,1.25,0,0,0,0,0
3.928,1.25,0,0,0,0,0
3.929,1.25,0,0,0,0,0
3.93,1.25,0,0,0,0,0
3.931,1.25,0,0,0,0,0
3.932,1.25,0,0,0,0,0
3.933,1.25,0,0,0,0,0
3.934,1.25,0,0,0,0,0
3.935,1.25,0,0,0,0,0
3.936,1.25,0,0,0,0,0
3.937,0.625,0,0,0,0,0
3.938,0.3125,0,0,0,0,0
3.939,0.625,0,0,0,0,0
3.94,0.3125,0,0,0,0,0
3.941,0.625,0,0,0,0,0
3.942,0.3125,0,0,0,0,0
3.943,0,0,0,0,0,0
3.944,-0.9375,0,0,0,0,0
3.945,-0.625,0,0,0,0,0
3.946,-0.9375,0,0,0,0,0
3.947,-1.25,0,0,0,0,0
3.948,-0.9375,0,0,0,0,0
3.949,-0.625,0,0,0,0,0
3.95,-0.3125,0,0,0,0,0
3.951,0,0,0,0,0,0
3.952,0.625,0,0,0,0,0
3.953,0.625,0,0,0,0,0
3.954,0.9375,0,0,0,0,0
3.955,1.25,0,0,0,0,0
3.956,1.25,0,0,0,0,0
3.957,1.25,0,0,0,0,0
3.958,0.625,0,0,0,0,0
3.959,0.625,0,0,0,0,0
3.96,0.3125,0,0,0,0,0
3.961,0.625,0,0,0,0,0
3.962,0,0,0,0,0,0
3.963,0.625,0,0,0,0,0
3.964,0.3125,0,0,0,0,0
3.965,0.625,0,0,0,0,0
3.966,0.9375,0,0,0,0,0
3.967,0.625,0,0,0,0,0
3.968,0.625,0,0,0,0,0
3.969,0,0,0,0,0,0
3.97,-0.625,0,0,0,0,0
3.971,0,0,0,0,0,0
3.972,-0.3125,0,0,0,0,0
3.973,0,0,0,0,0,0
3.974,0,0,0,0,0,0
3.975,0,0,0,0,0,0
3.976,0,0,0,0,0,0
3.977,-0.625,0,0,0,0,0
3.978,-0.625,0,0,0,0,0
3.979,-0.625,0,0,0,0,0
3.98,-0.625,0,0,0,0,0
3.981,-0.625,0,0,0,0,0
3.982,-0.9375,0,0,0,0,0
3.983,-1.25,0,0,0,0,0
3.984,-1.25,0,0,0,0,0
3.985,-1.875,0,0,0,0,0
3.986,-1.25,0,0,0,0,0
3.987,-1.25,0,0,0,0,0
3.988,-0.9375,0,0,0,0,0
3.989,-0.625,0,0,0,0,0
3.99,-0.3125,0,0,0,0,0
3.991,-0.625,0,0,0,0,0
3.992,-0.9375,0,0,0,0,0
3.993,-1.25,0,0,0,0,0
3.994,-0.625,0,0,0,0,0
3.995,-1.25,0,0,0,0,0
3.996,-0.625,0,0,0,0,0
3.997,-0.625,0,0,0,0,0
3.998,-1.25,0,0,0,0,0
3.999,-0.625,0,0,0,0,0
4,0,0,0,0,0,0
4.001,0.625,0,0,0,0,0
4.002,-0.3125,0,0,0,0,0
4.003,0,0,0,0,0,0
4.004,0.3125,0,0,0,0,0
4.005,0.625,0,0,0,0,0
4.006,0.3125,0,0,0,0,0
4.007,-0.625,0,0,0,0,0
4.008,-0.625,0,0,0,0,0
4.009,-0.625,0,0,0,0,0
4.01,-0.3125,0,0,0,0,0
4.011,-1.25,0,0,0,0,0
4.012,-1.25,0,0,0,0,0
4.013,-1.25,0,0,0,0,0
4.014,-0.9375,0,0,0,0,0
4.015,-0.625,0,0,0,0,0
4.016,-0.9375,0,0,0,0,0
4.017,-1.25,0,0,0,0,0
4.018,-1.5625,0,0,0,0,0
4.019,-1.25,0,0,0,0,0
4.02,-0.625,0,0,0,0,0
4.021,-0.625,0,0,0,0,0
4.022,-0.9375,0,0,0,0,0
4.023,-1.25,0,0,0,0,0
4.024,-1.25,0,0,0,0,0
4.025,-1.25,0,0,0,0,0
4.026,-0.9375,0,0,0,0,0
4.027,-0.625,0,0,0,0,0
4.028,0.3125,0,0,0,0,0
4.029,0.625,0,0,0,0,0
4.03,0.625,0,0,0,0,0
4.031,0.625,0,0,0,0,0
4.032,0.9375,0,0,0,0,0
4.033,1.25,0,0,0,0,0
4.034,0.625,0,0,0,0,0
4.035,1.25,0,0,0,0,0
4.036,0.9375,0,0,0,0,0
4.037,0.625,0,0,0,0,0
4.038,0.625,0,0,0,0,0
4.039,0.625,0,0,0,0,0
4.04,0.9375,0,0,0,0,0
4.041,0.625,0,0,0,0,0
4.042,0.625,0,0,0,0,0
4.043,0.625,0,0,0,0,0
4.044,0.3125,0,0,0,0,0
4.045,0.625,0,0,0,0,0
4.046,0.9375,0,0,0,0,0
4.047,0.625,0,0,0,0,0
4.048,1.25,0,0,0,0,0
4.049,1.875,0,0,0,0,0
4.05,1.875,0,0,0,0,0
4.051,1.25,0,0,0,0,0
4.052,2.1875,0,0,0,0,0
4.053,2.5,1,0,0,0,0
4.054,2.8125,0,0,0,0,0
4.055,3.125,0,0,0,0,0
4.056,3.75,0,0,0,0,0
4.057,3.75,0,0,0,0,0
4.058,5,0,0,0,0,0
4.059,5.625,0,0,0,0,0
4.06,7.5,0,0,0,0,0
4.061,8.75,0,0,0,0,0
4.062,10,0,0,0,0,0
4.063,10.625,0,0,0,0,0
4.064,11.875,0,0,0,0,0
4.065,13.75,0,0,0,0,0
4.066,16.25,0,0,0,0,0
4.067,18.125,0,0,0,0,0
4.068,19.688,0,0,0,0,0
4.069,21.875,0,0,0,0,0
4.07,25.313,0,0,0,0,0
4.071,28.125,0,0,0,0,0
4.072,30.938,0,0,0,0,0
4.073,33.125,0,0,0,0,0
4.074,37.813,0,0,0,0,0
4.075,41.875,0,0,0,0,0
4.076,46.25,0,0,0,0,0
4.077,50,0,0,0,0,0
4.078,54.063,0,0,0,0,0
4.079,57.5,0,0,0,0,0
4.08,61.875,0,0,0,0,0
4.081,66.25,0,0,0,0,0
4.082,69.688,0,0,0,0,0
4.083,72.5,0,0,0,0,0
4.084,75.625,0,0,0,0,0
4.085,77.5,0,0,0,0,0
4.086,81.563,0,0,0,0,0
4.087,84.375,0,0,0,0,0
4.088,86.25,0,0,0,0,0
4.089,86.875,0,0,0,0,0
4.09,87.188,0,0,0,0,0
4.091,87.5,0,1,0,0,0
4.092,88.438,0,0,0,0,0
4.093,88.125,0,0,0,0,0
4.094,89.375,0,0,0,0,0
4.095,87.5,0,0,0,0,0
4.096,84.375,0,0,0,0,0
4.097,79.375,0,0,0,0,0
4.098,70.313,0,0,0,0,0
4.099,61.25,0,0,0,0,0
4.1,53.75,0,0,0,0,0
4.101,48.125,0,0,0,0,0
4.102,42.188,0,0,0,0,0
4.103,36.875,0,0,0,0,0
4.104,30.313,0,0,0,0,0
4.105,21.875,0,0,0,0,0
4.106,13.125,0,0,0,0,0
4.107,5,0,0,0,0,0
4.108,-2.8125,0,0,0,0,0
4.109,-8.75,0,0,0,0,0
4.11,-12.813,0,0,0,0,0
4.111,-16.25,0,0,0,0,0
4.112,-18.125,0,0,0,0,0
4.113,-18.75,0,0,0,0,0
4.114,-19.688,0,0,0,0,0
4.115,-19.375,0,0,0,0,0
4.116,-20.313,0,0,0,0,0
4.117,-20.625,0,0,0,0,0
4.118,-20.625,0,0,0,0,0
4.119,-20,0,0,0,0,0
4.12,-17.813,0,0,0,0,0
4.121,-15.625,0,0,0,0,0
4.122,-14.688,0,0,0,0,0
4.123,-13.75,0,0,0,0,0
4.124,-13.75,0,0,0,0,0
4.125,-12.5,0,0,0,0,0
4.126,-11.875,0,0,0,0,0
4.127,-10.625,0,0,0,0,0
4.128,-9.375,0,0,0,0,0
4.129,-9.375,0,0,0,0,0
4.13,-8.75,0,0,0,0,0
4.131,-8.125,0,0,0,0,0
4.132,-8.125,0,0,0,0,0
4.133,-7.5,0,0,0,0,0
4.134,-6.25,0,0,1,0,0
4.135,-5.625,0,0,0,0,0
4.136,-5.625,0,0,0,0,0
4.137,-5,0,0,0,0,0
4.138,-5.9375,0,0,0,0,0
4.139,-5.625,0,0,0,0,0
4.14,-4.6875,0,0,0,0,0
4.141,-4.375,0,0,0,0,0
4.142,-4.375,0,0,0,0,0
4.143,-4.375,0,0,0,0,0
4.144,-4.375,0,0,0,0,0
4.145,-4.375,0,0,0,0,0
4.146,-5,0,0,0,0,0
4.147,-4.375,0,0,0,0,0
4.148,-4.375,0,0,0,0,0
4.149,-3.75,0,0,0,0,0
4.15,-3.75,0,0,0,0,0
4.151,-3.75,0,0,0,0,0
4.152,-3.75,0,0,0,0,0
4.153,-3.75,0,0,0,0,0
4.154,-3.4375,0,0,0,0,0
4.155,-3.125,0,0,0,0,0
4.156,-3.125,0,0,0,0,0
4.157,-3.125,0,0,0,0,0
4.158,-3.125,0,0,0,0,0
4.159,-3.125,0,0,0,0,0
4.16,-3.4375,0,0,0,0,0
4.161,-3.75,0,0,0,0,0
4.162,-3.4375,0,0,0,0,0
4.163,-3.125,0,0,0,0,0
4.164,-3.125,0,0,0,0,0
4.165,-3.125,0,0,0,0,0
4.166,-3.125,0,0,0,0,0
4.167,-2.5,0,0,0,0,0
4.168,-2.8125,0,0,0,0,0
4.169,-2.5,0,0,0,0,0
4.17,-2.5,0,0,0,0,0
4.171,-2.5,0,0,0,0,0
4.172,-2.5,0,0,0,0,0
4.173,-2.5,0,0,0,0,0
4.174,-1.25,0,0,0,0,0
4.175,-0.625,0,0,0,0,0
4.176,-0.9375,0,0,0,0,0
4.177,-0.625,0,0,0,0,0
4.178,-0.625,0,0,0,0,0
4.179,-0.625,0,0,0,0,0
4.18,-1.5625,0,0,0,0,0
4.181,-2.5,0,0,0,0,0
4.182,-3.4375,0,0,0,0,0
4.183,-4.375,0,0,0,0,0
4.184,-5,0,0,0,0,0
4.185,-5,0,0,0,0,0
4.186,-5,0,0,0,0,0
4.187,-5,0,0,0,0,0
4.188,-5.3125,0,0,0,0,0
4.189,-5,0,0,0,0,0
4.19,-5,0,0,0,0,0
4.191,-5,0,0,0,0,0
4.192,-5.3125,0,0,0,0,0
4.193,-5,0,0,0,0,0
4.194,-5,0,0,0,0,0
4.195,-4.375,0,0,0,0,0
4.196,-4.375,0,0,0,0,0
4.197,-4.375,0,0,0,0,0
4.198,-4.375,0,0,0,0,0
4.199,-3.75,0,0,0,0,0
4.2,-3.4375,0,0,0,0,0
4.201,-3.125,0,0,0,0,0
4.202,-2.8125,0,0,0,0,0
4.203,-2.5,0,0,0,0,0
4.204,-2.1875,0,0,0,0,0
4.205,-1.875,0,0,0,0,0
4.206,-1.875,0,0,0,0,0
4.207,-1.875,0,0,0,0,0
4.208,-1.875,0,0,0,0,0
4.209,-1.875,0,0,0,0,0
4.21,-2.5,0,0,0,0,0
4.211,-2.5,0,0,0,0,0
4.212,-2.5,0,0,0,0,0
4.213,-2.5,0,0,0,0,0
4.214,-1.875,0,0,0,0,0
4.215,-1.875,0,0,0,0,0
4.216,-2.5,0,0,0,0,0
4.217,-3.125,0,0,0,0,0
4.218,-3.125,0,0,0,0,0
4.219,-3.125,0,0,0,0,0
4.22,-3.4375,0,0,0,0,0
4.221,-3.125,0,0,0,0,0
4.222,-3.125,0,0,0,0,0
4.223,-3.125,0,0,0,0,0
4.224,-3.125,0,0,0,0,0
4.225,-3.125,0,0,0,0,0
4.226,-3.75,0,0,0,0,0
4.227,-3.75,0,0,0,0,0
4.228,-3.4375,0,0,0,0,0
4.229,-3.125,0,0,0,0,0
4.23,-2.8125,0,0,0,0,0
4.231,-3.125,0,0,0,0,0
4.232,-2.8125,0,0,0,0,0
4.233,-3.75,0,0,0,0,0
4.234,-3.4375,0,0,0,0,0
4.235,-3.75,0,0,0,0,0
4.236,-3.125,0,0,0,0,0
4.237,-3.125,0,0,0,0,0
4.238,-3.125,0,0,0,0,0
4.239,-3.125,0,0,0,0,0
4.24,-3.4375,0,0,0,0,0
4.241,-3.75,0,0,0,0,0
4.242,-3.75,0,0,0,0,0
4.243,-3.75,0,0,0,0,0
4.244,-3.125,0,0,0,0,0
4.245,-3.125,0,0,0,0,0
4.246,-3.125,0,0,0,0,0
4.247,-3.125,0,0,0,0,0
4.248,-2.8125,0,0,0,0,0
4.249,-2.5,0,0,0,0,0
4.25,-3.75,0,0,0,0,0
4.251,-4.375,0,0,0,0,0
4.252,-4.0625,0,0,0,0,0
4.253,-3.75,0,0,0,0,0
4.254,-4.0625,0,0,0,0,0
4.255,-4.375,0,0,0,0,0
4.256,-3.75,0,0,0,0,0
4.257,-3.125,0,0,0,0,0
4.258,-3.75,0,0,0,0,0
4.259,-3.75,0,0,0,0,0
4.26,-4.0625,0,0,0,0,0
4.261,-4.375,0,0,0,0,0
4.262,-4.0625,0,0,0,0,0
4.263,-3.75,0,0,0,0,0
4.264,-3.75,0,0,0,0,0
4.265,-4.375,0,0,0,0,0
4.266,-4.0625,0,0,0,0,0
4.267,-4.375,0,0,0,0,0
4.268,-4.0625,0,0,0,0,0
4.269,-3.75,0,0,0,0,0
4.27,-3.4375,0,0,0,0,0
4.271,-3.125,0,0,0,0,0
4.272,-3.125,0,0,0,0,0
4.273,-3.125,0,0,0,0,0
4.274,-3.125,0,0,0,0,0
4.275,-3.75,0,0,0,0,0
4.276,-3.4375,0,0,0,0,0
4.277,-3.125,0,0,0,0,0
4.278,-3.4375,0,0,0,0,0
4.279,-3.75,0,0,0,0,0
4.28,-3.75,0,0,0,0,0
4.281,-3.75,0,0,0,0,0
4.282,-3.75,0,0,0,0,0
4.283,-3.75,0,0,0,0,0
4.284,-3.75,0,0,0,0,0
4.285,-3.75,0,0,0,0,0
4.286,-4.0625,0,0,0,0,0
4.287,-4.375,0,0,0,0,0
4.288,-4.6875,0,0,0,0,0
4.289,-5,0,0,0,0,0
4.29,-5,0,0,0,0,0
4.291,-5,0,0,0,0,0
4.292,-4.6875,0,0,0,0,0
4.293,-4.375,0,0,0,0,0
4.294,-4.375,0,0,0,0,0
4.295,-4.375,0,0,0,0,0
4.296,-4.375,0,0,0,0,0
4.297,-4.375,0,0,0,0,0
4.298,-5,0,0,0,0,0
4.299,-5,0,0,0,0,0
4.3,-4.6875,0,0,0,0,0
4.301,-4.375,0,0,0,0,0
4.302,-4.375,0,0,0,0,0
4.303,-3.75,0,0,0,0,0
4.304,-4.6875,0,0,0,0,0
4.305,-5,0,0,0,0,0
4.306,-5.3125,0,0,0,0,0
4.307,-5.625,0,0,0,0,0
4.308,-5.3125,0,0,0,0,0
4.309,-5,0,0,0,0,0
4.31,-4.6875,0,0,0,0,0
4.311,-5,0,0,0,0,0
4.312,-4.375,0,0,0,0,0
4.313,-4.375,0,0,0,0,0
4.314,-4.0625,0,0,0,0,0
4.315,-4.375,0,0,0,0,0
4.316,-5,0,0,0,0,0
4.317,-5.625,0,0,0,0,0
4.318,-5.625,0,0,0,0,0
4.319,-5,0,0,0,0,0
4.32,-5.625,0,0,0,0,0
4.321,-5,0,0,0,0,0
4.322,-5.3125,0,0,0,0,0
4.323,-5.625,0,0,0,0,0
4.324,-5.3125,0,0,0,0,0
4.325,-5,0,0,0,0,0
4.326,-5.625,0,0,0,0,0
4.327,-5,0,0,0,0,0
4.328,-5,0,0,0,0,0
4.329,-5,0,0,0,0,0
4.33,-5.3125,0,0,0,0,0
4.331,-5,0,0,0,0,0
4.332,-4.375,0,0,0,0,0
4.333,-4.375,0,0,0,0,0
4.334,-4.6875,0,0,0,0,0
4.335,-4.375,0,0,0,0,0
4.336,-4.375,0,0,0,0,0
4.337,-4.375,0,0,0,0,0
4.338,-4.6875,0,0,0,0,0
4.339,-5,0,0,0,0,0
4.34,-5,0,0,0,0,0
4.341,-5,0,0,0,0,0
4.342,-5.3125,0,0,0,0,0
4.343,-5.625,0,0,0,0,0
4.344,-5.625,0,0,0,0,0
4.345,-5.625,0,0,0,0,0
4.346,-5.625,0,0,0,0,0
4.347,-5.625,0,0,0,0,0
4.348,-5.625,0,0,0,0,0
4.349,-5.625,0,0,0,0,0
4.35,-5.3125,0,0,0,0,0
4.351,-5.625,0,0,0,0,0
4.352,-5.3125,0,0,0,0,0
4.353,-5,0,0,0,0,0
4.354,-5,0,0,0,0,0
4.355,-5,0,0,0,0,0
4.356,-5.625,0,0,0,0,0
4.357,-6.25,0,0,0,0,0
4.358,-6.25,0,0,0,0,0
4.359,-6.875,0,0,0,0,0
4.36,-6.25,0,0,0,0,0
4.361,-6.25,0,0,0,0,0
4.362,-5.625,0,0,0,0,0
4.363,-5,0,0,0,0,0
4.364,-6.25,0,0,0,0,0
4.365,-6.25,0,0,0,0,0
4.366,-6.5625,0,0,0,0,0
4.367,-6.875,0,0,0,0,0
4.368,-6.875,0,0,0,0,0
4.369,-6.875,0,0,0,0,0
4.37,-7.1875,0,0,0,0,0
4.371,-6.875,0,0,0,0,0
4.372,-7.1875,0,0,0,0,0
4.373,-7.5,0,0,0,0,0
4.374,-7.8125,0,0,0,0,0
4.375,-8.125,0,0,0,0,0
4.376,-8.125,0,0,0,0,0
4.377,-8.75,0,0,0,0,0
4.378,-9.375,0,0,0,0,0
4.379,-8.75,0,0,0,0,0
4.38,-8.75,0,0,0,0,0
4.381,-8.75,0,0,0,0,0
4.382,-8.75,0,0,0,0,0
4.383,-8.75,0,0,0,0,0
4.384,-8.75,0,0,0,0,0
4.385,-8.75,0,0,0,0,0
4.386,-8.4375,0,0,0,0,0
4.387,-8.125,0,0,0,0,0
4.388,-8.125,0,0,0,1,0
4.389,-8.75,0,0,0,0,0
4.39,-8.75,0,0,0,0,0
4.391,-8.75,0,0,0,0,0
4.392,-8.4375,0,0,0,0,0
4.393,-8.125,0,0,0,0,0
4.394,-7.8125,0,0,0,0,0
4.395,-6.875,0,0,0,0,0
4.396,-7.5,0,0,0,0,0
4.397,-7.5,0,0,0,0,0
4.398,-7.5,0,0,0,0,0
4.399,-7.5,0,0,0,0,0
4.4,-7.8125,0,0,0,0,0
4.401,-8.125,0,0,0,0,0
4.402,-7.8125,0,0,0,0,0
4.403,-8.125,0,0,0,0,0
4.404,-8.125,0,0,0,0,0
4.405,-8.125,0,0,0,0,0
4.406,-8.125,0,0,0,0,0
4.407,-8.125,0,0,0,0,0
4.408,-8.125,0,0,0,0,0
4.409,-8.125,0,0,0,0,0
4.41,-8.125,0,0,0,0,0
4.411,-8.125,0,0,0,0,0
4.412,-8.125,0,0,0,0,0
4.413,-8.125,0,0,0,0,0
4.414,-7.5,0,0,0,0,0
4.415,-7.5,0,0,0,0,0
4.416,-7.5,0,0,0,0,0
4.417,-7.5,0,0,0,0,0
4.418,-7.5,0,0,0,0,0
4.419,-6.875,0,0,0,0,0
4.42,-6.875,0,0,0,0,0
4.421,-6.875,0,0,0,0,0
4.422,-7.1875,0,0,0,0,0
4.423,-7.5,0,0,0,0,0
4.424,-7.5,0,0,0,0,0
4.425,-6.875,0,0,0,0,0
4.426,-6.25,0,0,0,0,0
4.427,-5,0,0,0,0,0
4.428,-4.6875,0,0,0,0,0
4.429,-5,0,0,0,0,0
4.43,-5,0,0,0,0,0
4.431,-5,0,0,0,0,0
4.432,-4.375,0,0,0,0,0
4.433,-4.375,0,0,0,0,0
4.434,-3.4375,0,0,0,0,0
4.435,-3.125,0,0,0,0,0
4.436,-2.5,0,0,0,0,0
4.437,-2.5,0,0,0,0,0
4.438,-2.8125,0,0,0,0,0
4.439,-2.5,0,0,0,0,0
4.44,-1.5625,0,0,0,0,0
4.441,-1.25,0,0,0,0,0
4.442,-1.875,0,0,0,0,0
4.443,-1.25,0,0,0,0,0
4.444,-0.625,0,0,0,0,0
4.445,-0.625,0,0,0,0,0
4.446,0.3125,0,0,0,0,0
4.447,1.25,0,0,0,0,0
4.448,1.5625,0,0,0,0,0
4.449,2.5,0,0,0,0,0
4.45,2.1875,0,0,0,0,0
4.451,1.875,0,0,0,0,0
4.452,2.1875,0,0,0,0,0
4.453,1.875,0,0,0,0,0
4.454,2.8125,0,0,0,0,0
4.455,3.125,0,0,0,0,0
4.456,2.5,0,0,0,0,0
4.457,2.5,0,0,0,0,0
4.458,2.1875,0,0,0,0,0
4.459,1.875,0,0,0,0,0
4.46,3.125,0,0,0,0,0
4.461,3.75,0,0,0,0,0
4.462,3.4375,0,0,0,0,0
4.463,3.75,0,0,0,0,0
4.464,3.125,0,0,0,0,0
4.465,3.75,0,0,0,0,0
4.466,3.75,0,0,0,0,0
4.467,3.75,0,0,0,0,0
4.468,4.0625,0,0,0,0,0
4.469,5,0,0,0,0,0
4.47,5,0,0,0,0,0
4.471,5,0,0,0,0,0
4.472,5.3125,0,0,0,0,0
4.473,5.625,0,0,0,0,0
4.474,5.3125,0,0,0,0,0
4.475,6.25,0,0,0,0,0
4.476,5.9375,0,0,0,0,0
4.477,5.625,0,0,0,0,0
4.478,5.625,0,0,0,0,0
4.479,5.625,0,0,0,0,0
4.48,5.625,0,0,0,0,0
4.481,5.625,0,0,0,0,0
4.482,5.625,0,0,0,0,0
4.483,5.625,0,0,0,0,0
4.484,6.25,0,0,0,0,0
4.485,6.25,0,0,0,0,0
4.486,6.25,0,0,0,0,0
4.487,6.25,0,0,0,0,0
4.488,5.9375,0,0,0,0,0
4.489,5.625,0,0,0,0,0
4.49,6.25,0,0,0,0,0
4.491,5.625,0,0,0,0,0
4.492,5,0,0,0,0,0
4.493,5,0,0,0,0,0
4.494,4.6875,0,0,0,0,0
4.495,4.375,0,0,0,0,0
4.496,5.3125,0,0,0,0,0
4.497,5,0,0,0,0,0
4.498,5,0,0,0,0,0
4.499,4.375,0,0,0,0,0
4.5,4.375,0,0,0,0,0
4.501,4.375,0,0,0,0,0
4.502,4.6875,0,0,0,0,0
4.503,4.375,0,0,0,0,0
4.504,4.6875,0,0,0,0,0
4.505,5,0,0,0,0,0
4.506,5,0,0,0,0,0
4.507,5,0,0,0,0,0
4.508,5.3125,0,0,0,0,0
4.509,5.625,0,0,0,0,0
4.51,5.3125,0,0,0,0,0
4.511,5,0,0,0,0,0
4.512,5.625,0,0,0,0,0
4.513,5.625,0,0,0,0,0
4.514,5.625,0,0,0,0,0
4.515,5.625,0,0,0,0,0
4.516,5.3125,0,0,0,0,0
4.517,5,0,0,0,0,0
4.518,5,0,0,0,0,0
4.519,5,0,0,0,0,0
4.52,5.3125,0,0,0,0,0
4.521,5,0,0,0,0,0
4.522,5,0,0,0,0,0
4.523,5,0,0,0,0,0
4.524,5,0,0,0,0,0
4.525,5,0,0,0,0,0
4.526,4.0625,0,0,0,0,0
4.527,4.375,0,0,0,0,0
4.528,4.375,0,0,0,0,0
4.529,4.375,0,0,0,0,0
4.53,4.375,0,0,0,0,0
4.531,3.75,0,0,0,0,0
4.532,4.375,0,0,0,0,0
4.533,4.375,0,0,0,0,0
4.534,3.75,0,0,0,0,0
4.535,3.75,0,0,0,0,0
4.536,3.75,0,0,0,0,0
4.537,3.75,0,0,0,0,0
4.538,3.125,0,0,0,0,0
4.539,3.75,0,0,0,0,1
4.54,4.0625,0,0,0,0,0
4.541,4.375,0,0,0,0,0
4.542,3.75,0,0,0,0,0
4.543,3.125,0,0,0,0,0
4.544,3.125,0,0,0,0,0
4.545,3.125,0,0,0,0,0
4.546,2.8125,0,0,0,0,0
4.547,1.875,0,0,0,0,0
4.548,2.5,0,0,0,0,0
4.549,2.5,0,0,0,0,0
4.55,2.5,0,0,0,0,0
4.551,2.5,0,0,0,0,0
4.552,2.8125,0,0,0,0,0
4.553,3.125,0,0,0,0,0
4.554,3.4375,0,0,0,0,0
4.555,3.75,0,0,0,0,0
4.556,3.75,0,0,0,0,0
4.557,3.75,0,0,0,0,0
4.558,3.4375,0,0,0,0,0
4.559,3.125,0,0,0,0,0
4.56,3.4375,0,0,0,0,0
4.561,3.75,0,0,0,0,0
4.562,3.4375,0,0,0,0,0
4.563,3.75,0,0,0,0,0
4.564,4.0625,0,0,0,0,0
4.565,3.75,0,0,0,0,0
4.566,3.4375,0,0,0,0,0
4.567,3.75,0,0,0,0,0
4.568,3.4375,0,0,0,0,0
4.569,3.125,0,0,0,0,0
4.57,4.0625,0,0,0,0,0
4.571,3.75,0,0,0,0,0
4.572,3.4375,0,0,0,0,0
4.573,3.125,0,0,0,0,0
4.574,3.4375,0,0,0,0,0
4.575,3.125,0,0,0,0,0
4.576,3.4375,0,0,0,0,0
4.577,3.75,0,0,0,0,0
4.578,4.0625,0,0,0,0,0
4.579,3.75,0,0,0,0,0
4.58,3.4375,0,0,0,0,0
4.581,3.125,0,0,0,0,0
4.582,3.125,0,0,0,0,0
4.583,3.125,0,0,0,0,0
4.584,3.75,0,0,0,0,0
4.585,3.125,0,0,0,0,0
4.586,3.75,0,0,0,0,0
4.587,3.125,0,0,0,0,0
4.588,3.4375,0,0,0,0,0
4.589,3.75,0,0,0,0,0
4.59,3.4375,0,0,0,0,0
4.591,3.125,0,0,0,0,0
4.592,3.125,0,0,0,0,0
4.593,3.125,0,0,0,0,0
4.594,3.4375,0,0,0,0,0
4.595,3.75,0,0,0,0,0
4.596,3.75,0,0,0,0,0
4.597,2.5,0,0,0,0,0
4.598,2.5,0,0,0,0,0
4.599,2.5,0,0,0,0,0
4.6,2.1875,0,0,0,0,0
4.601,2.5,0,0,0,0,0
4.602,2.5,0,0,0,0,0
4.603,2.5,0,0,0,0,0
4.604,2.5,0,0,0,0,0
4.605,2.5,0,0,0,0,0
4.606,2.5,0,0,0,0,0
4.607,2.5,0,0,0,0,0
4.608,2.5,0,0,0,0,0
4.609,2.5,0,0,0,0,0
4.61,2.5,0,0,0,0,0
4.611,2.5,0,0,0,0,0
4.612,2.5,0,0,0,0,0
4.613,2.5,0,0,0,0,0
4.614,2.5,0,0,0,0,0
4.615,3.125,0,0,0,0,0
4.616,2.8125,0,0,0,0,0
4.617,3.125,0,0,0,0,0
4.618,3.125,0,0,0,0,0
4.619,3.125,0,0,0,0,0
4.62,3.125,0,0,0,0,0
4.621,3.125,0,0,0,0,0
4.622,3.75,0,0,0,0,0
4.623,3.125,0,0,0,0,0
4.624,2.5,0,0,0,0,0
4.625,1.875,0,0,0,0,0
4.626,1.875,0,0,0,0,0
4.627,1.875,0,0,0,0,0
4.628,1.875,0,0,0,0,0
4.629,1.875,0,0,0,0,0
4.63,1.875,0,0,0,0,0
4.631,1.875,0,0,0,0,0
4.632,1.25,0,0,0,0,0
4.633,1.25,0,0,0,0,0
4.634,1.25,0,0,0,0,0
4.635,0.625,0,0,0,0,0
4.636,0.9375,0,0,0,0,0
4.637,1.25,0,0,0,0,0
4.638,1.875,0,0,0,0,0
4.639,2.5,0,0,0,0,0
4.64,2.8125,0,0,0,0,0
4.641,3.125,0,0,0,0,0
4.642,3.125,0,0,0,0,0
4.643,3.125,0,0,0,0,0
4.644,2.8125,0,0,0,0,0
4.645,2.5,0,0,0,0,0
4.646,2.5,0,0,0,0,0
4.647,2.5,0,0,0,0,0
4.648,2.5,0,0,0,0,0
4.649,2.5,0,0,0,0,0
4.65,1.25,0,0,0,0,0
4.651,1.25,0,0,0,0,0
4.652,1.875,0,0,0,0,0
4.653,1.875,0,0,0,0,0
4.654,1.5625,0,0,0,0,0
4.655,1.25,0,0,0,0,0
4.656,1.5625,0,0,0,0,0
4.657,0.625,0,0,0,0,0
4.658,0.625,0,0,0,0,0
4.659,0.625,0,0,0,0,0
4.66,0.625,0,0,0,0,0
4.661,0.625,0,0,0,0,0
4.662,1.25,0,0,0,0,0
4.663,0.625,0,0,0,0,0
4.664,0.9375,0,0,0,0,0
4.665,0.625,0,0,0,0,0
4.666,1.25,0,0,0,0,0
4.667,1.875,0,0,0,0,0
4.668,1.875,0,0,0,0,0
4.669,1.875,0,0,0,0,0
4.67,2.5,0,0,0,0,0
4.671,2.5,0,0,0,0,0
4.672,2.5,0,0,0,0,0
4.673,2.5,0,0,0,0,0
4.674,3.125,0,0,0,0,0
4.675,3.125,0,0,0,0,0
4.676,2.8125,0,0,0,0,0
4.677,2.5,0,0,0,0,0
4.678,2.8125,0,0,0,0,0
4.679,3.125,0,0,0,0,0
4.68,3.125,0,0,0,0,0
4.681,3.125,0,0,0,0,0
4.682,3.125,0,0,0,0,0
4.683,3.125,0,0,0,0,0
4.684,2.8125,0,0,0,0,0
4.685,2.5,0,0,0,0,0
4.686,2.5,0,0,0,0,0
4.687,2.5,0,0,0,0,0
4.688,2.5,0,0,0,0,0
4.689,3.125,0,0,0,0,0
4.69,2.8125,0,0,0,0,0
4.691,3.125,0,0,0,0,0
4.692,3.125,0,0,0,0,0
4.693,3.125,0,0,0,0,0
4.694,2.8125,0,0,0,0,0
4.695,2.5,0,0,0,0,0
4.696,2.1875,0,0,0,0,0
4.697,1.875,0,0,0,0,0
4.698,1.875,0,0,0,0,0
4.699,1.875,0,0,0,0,0
4.7,1.25,0,0,0,0,0
4.701,1.25,0,0,0,0,0
4.702,1.875,0,0,0,0,0
4.703,1.25,0,0,0,0,0
4.704,1.5625,0,0,0,0,0
4.705,1.25,0,0,0,0,0
4.706,0.625,0,0,0,0,0
4.707,0.625,0,0,0,0,0
4.708,0.625,0,0,0,0,0
4.709,0.625,0,0,0,0,0
4.71,0.625,0,0,0,0,0
4.711,1.25,0,0,0,0,0
4.712,1.25,0,0,0,0,0
4.713,1.25,0,0,0,0,0
4.714,1.25,0,0,0,0,0
4.715,1.25,0,0,0,0,0
4.716,1.5625,0,0,0,0,0
4.717,1.25,0,0,0,0,0
4.718,0.625,0,0,0,0,0
4.719,0.625,0,0,0,0,0
4.72,1.25,0,0,0,0,0
4.721,1.875,0,0,0,0,0
4.722,1.25,0,0,0,0,0
4.723,1.875,0,0,0,0,0
4.724,1.875,0,0,0,0,0
4.725,1.875,0,0,0,0,0
4.726,1.5625,0,0,0,0,0
4.727,1.25,0,0,0,0,0
4.728,2.1875,0,0,0,0,0
4.729,1.875,0,0,0,0,0
4.73,1.5625,0,0,0,0,0
4.731,1.25,0,0,0,0,0
4.732,1.25,0,0,0,0,0
4.733,1.25,0,0,0,0,0
4.734,1.5625,0,0,0,0,0
4.735,1.875,0,0,0,0,0
4.736,1.875,0,0,0,0,0
4.737,1.875,0,0,0,0,0
4.738,1.875,0,0,0,0,0
4.739,1.875,0,0,0,0,0
4.74,1.5625,0,0,0,0,0
4.741,1.25,0,0,0,0,0
4.742,2.1875,0,0,0,0,0
4.743,2.5,0,0,0,0,0
4.744,1.5625,0,0,0,0,0
4.745,1.25,0,0,0,0,0
4.746,1.5625,0,0,0,0,0
4.747,1.875,0,0,0,0,0
4.748,1.25,0,0,0,0,0
4.749,1.25,0,0,0,0,0
4.75,0.9375,0,0,0,0,0
4.751,1.25,0,0,0,0,0
4.752,1.5625,0,0,0,0,0
4.753,1.875,0,0,0,0,0
4.754,1.5625,0,0,0,0,0
4.755,1.25,0,0,0,0,0
4.756,1.25,0,0,0,0,0
4.757,1.25,0,0,0,0,0
4.758,1.5625,0,0,0,0,0
4.759,1.25,0,0,0,0,0
4.76,1.5625,0,0,0,0,0
4.761,1.875,0,0,0,0,0
4.762,1.25,0,0,0,0,0
4.763,1.25,0,0,0,0,0
4.764,1.5625,0,0,0,0,0
4.765,1.25,0,0,0,0,0
4.766,1.5625,0,0,0,0,0
4.767,1.25,0,0,0,0,0
4.768,1.25,0,0,0,0,0
4.769,1.25,0,0,0,0,0
4.77,0.9375,0,0,0,0,0
4.771,1.25,0,0,0,0,0
4.772,1.5625,0,0,0,0,0
4.773,1.875,0,0,0,0,0
4.774,1.25,0,0,0,0,0
4.775,1.875,0,0,0,0,0
4.776,1.5625,0,0,0,0,0
4.777,1.25,0,0,0,0,0
4.778,0.625,0,0,0,0,0
4.779,0.625,0,0,0,0,0
4.78,0.9375,0,0,0,0,0
4.781,1.25,0,0,0,0,0
4.782,1.25,0,0,0,0,0
4.783,1.25,0,0,0,0,0
4.784,1.5625,0,0,0,0,0
4.785,1.875,0,0,0,0,0
4.786,0.9375,0,0,0,0,0
4.787,0.625,0,0,0,0,0
4.788,0.625,0,0,0,0,0
4.789,1.25,0,0,0,0,0
4.79,1.25,0,0,0,0,0
4.791,1.25,0,0,0,0,0
4.792,1.5625,0,0,0,0,0
4.793,1.875,0,0,0,0,0
4.794,1.25,0,0,0,0,0
4.795,1.25,0,0,0,0,0
4.796,1.25,0,0,0,0,0
4.797,1.25,0,0,0,0,0
4.798,0.9375,0,0,0,0,0
4.799,1.25,0,0,0,0,0
4.8,1.5625,0,0,0,0,0
4.801,1.875,0,0,0,0,0
4.802,1.875,0,0,0,0,0
4.803,1.875,0,0,0,0,0
4.804,2.1875,0,0,0,0,0
4.805,1.875,0,0,0,0,0
4.806,1.875,0,0,0,0,0
4.807,1.875,0,0,0,0,0
4.808,2.1875,0,0,0,0,0
4.809,1.875,0,0,0,0,0
4.81,2.1875,0,0,0,0,0
4.811,2.5,0,0,0,0,0
4.812,2.1875,0,0,0,0,0
4.813,2.5,0,0,0,0,0
4.814,2.5,0,0,0,0,0
4.815,2.5,0,0,0,0,0
4.816,2.1875,0,0,0,0,0
4.817,2.5,0,0,0,0,0
4.818,1.875,0,0,0,0,0
4.819,1.875,0,0,0,0,0
4.82,1.5625,0,0,0,0,0
4.821,1.25,0,0,0,0,0
4.822,1.5625,0,0,0,0,0
4.823,1.875,0,0,0,0,0
4.824,1.875,0,0,0,0,0
4.825,1.875,0,0,0,0,0
4.826,1.875,0,0,0,0,0
4.827,1.25,0,0,0,0,0
4.828,1.5625,0,0,0,0,0
4.829,1.875,0,0,0,0,0
4.83,1.5625,0,0,0,0,0
4.831,1.25,0,0,0,0,0
4.832,1.5625,0,0,0,0,0
4.833,1.25,0,0,0,0,0
4.834,1.25,0,0,0,0,0
4.835,1.875,0,0,0,0,0
4.836,1.875,0,0,0,0,0
4.837,1.25,0,0,0,0,0
4.838,1.875,0,0,0,0,0
4.839,1.875,0,0,0,0,0
4.84,2.1875,0,0,0,0,0
4.841,1.875,0,0,0,0,0
4.842,2.1875,0,0,0,0,0
4.843,1.875,0,0,0,0,0
4.844,1.5625,0,0,0,0,0
4.845,1.25,0,0,0,0,0
4.846,0.625,0,0,0,0,0
4.847,1.25,0,0,0,0,0
4.848,1.5625,0,0,0,0,0
4.849,1.875,0,0,0,0,0
4.85,1.875,0,0,0,0,0
4.851,1.875,0,0,0,0,0
4.852,0.9375,0,0,0,0,0
4.853,1.25,0,0,0,0,0
4.854,0.9375,0,0,0,0,0
4.855,0.625,0,0,0,0,0
4.856,1.5625,0,0,0,0,0
4.857,1.25,0,0,0,0,0
4.858,0.9375,0,0,0,0,0
4.859,0.625,0,0,0,0,0
4.86,1.25,0,0,0,0,0
4.861,1.875,0,0,0,0,0
4.862,2.1875,0,0,0,0,0
4.863,2.5,0,0,0,0,0
4.864,2.8125,0,0,0,0,0
4.865,2.5,0,0,0,0,0
4.866,2.8125,0,0,0,0,0
4.867,2.5,0,0,0,0,0
4.868,1.875,0,0,0,0,0
4.869,1.25,0,0,0,0,0
4.87,1.25,0,0,0,0,0
4.871,1.25,0,0,0,0,0
4.872,1.25,0,0,0,0,0
4.873,1.25,0,0,0,0,0
4.874,1.5625,0,0,0,0,0
4.875,1.875,0,0,0,0,0
4.876,1.5625,0,0,0,0,0
4.877,1.25,0,0,0,0,0
4.878,1.25,0,0,0,0,0
4.879,1.25,0,0,0,0,0
4.88,1.25,0,0,0,0,0
4.881,1.25,0,0,0,0,0
4.882,1.5625,0,0,0,0,0
4.883,1.875,0,0,0,0,0
4.884,1.875,0,0,0,0,0
4.885,2.5,0,0,0,0,0
4.886,1.875,0,0,0,0,0
4.887,1.875,0,0,0,0,0
4.888,2.8125,0,0,0,0,0
4.889,3.125,0,0,0,0,0
4.89,2.8125,0,0,0,0,0
4.891,2.5,0,0,0,0,0
4.892,2.1875,0,0,0,0,0
4.893,1.875,0,0,0,0,0
4.894,1.875,0,0,0,0,0
4.895,1.875,0,0,0,0,0
4.896,1.875,0,0,0,0,0
4.897,1.875,0,0,0,0,0
4.898,2.1875,0,0,0,0,0
4.899,1.875,0,0,0,0,0
4.9,1.5625,0,0,0,0,0
4.901,1.875,0,0,0,0,0
4.902,2.1875,0,0,0,0,0
4.903,1.875,0,0,0,0,0
4.904,2.1875,0,0,0,0,0
4.905,1.875,0,0,0,0,0
4.906,1.875,0,0,0,0,0
4.907,2.5,0,0,0,0,0
4.908,2.5,0,0,0,0,0
4.909,2.5,0,0,0,0,0
4.91,2.5,0,0,0,0,0
4.911,3.125,0,0,0,0,0
4.912,2.5,0,0,0,0,0
4.913,2.5,0,0,0,0,0
4.914,2.5,0,0,0,0,0
4.915,2.5,0,0,0,0,0
4.916,2.8125,0,0,0,0,0
4.917,1.875,0,0,0,0,0
4.918,2.1875,0,0,0,0,0
4.919,1.875,0,0,0,0,0
4.92,2.1875,0,0,0,0,0
4.921,2.5,0,0,0,0,0
4.922,2.8125,0,0,0,0,0
4.923,3.125,0,0,0,0,0
4.924,2.8125,0,0,0,0,0
4.925,2.5,0,0,0,0,0
4.926,3.125,0,0,0,0,0
4.927,3.75,0,0,0,0,0
4.928,3.75,0,0,0,0,0
4.929,4.375,0,0,0,0,0
4.93,3.75,0,0,0,0,0
4.931,3.75,0,0,0,0,0
4.932,3.75,0,0,0,0,0
4.933,3.75,0,0,0,0,0
4.934,3.75,0,0,0,0,0
4.935,3.75,0,0,0,0,0
4.936,4.0625,0,0,0,0,0
4.937,4.375,0,0,0,0,0
4.938,3.75,0,0,0,0,0
4.939,3.75,0,0,0,0,0
4.94,3.75,0,0,0,0,0
4.941,3.75,0,0,0,0,0
4.942,3.75,0,0,0,0,0
4.943,3.75,0,0,0,0,0
4.944,3.75,0,0,0,0,0
4.945,3.75,0,0,0,0,0
4.946,3.75,0,0,0,0,0
4.947,3.75,0,0,0,0,0
4.948,4.0625,0,0,0,0,0
4.949,4.375,0,0,0,0,0
4.95,4.6875,0,0,0,0,0
4.951,4.375,0,0,0,0,0
4.952,4.6875,0,0,0,0,0
4.953,5,0,0,0,0,0
4.954,5,0,0,0,0,0
4.955,5,0,0,0,0,0
4.956,5,0,0,0,0,0
4.957,5,0,0,0,0,0
4.958,5.625,0,0,0,0,0
4.959,5,0,0,0,0,0
4.96,5,0,0,0,0,0
4.961,5,0,0,0,0,0
4.962,5,0,0,0,0,0
4.963,5,0,0,0,0,0
4.964,5.625,0,0,0,0,0
4.965,5.625,0,0,0,0,0
4.966,5.625,0,0,0,0,0
4.967,5.625,0,0,0,0,0
4.968,5.3125,0,0,0,0,0
4.969,5,0,0,0,0,0
4.97,4.375,0,0,0,0,0
4.971,3.125,0,0,0,0,0
4.972,2.8125,0,0,0,0,0
4.973,2.5,0,0,0,0,0
4.974,2.8125,0,0,0,0,0
4.975,3.125,0,0,0,0,0
4.976,3.125,0,0,0,0,0
4.977,3.125,0,0,0,0,0
4.978,3.125,0,0,0,0,0
4.979,3.125,0,0,0,0,0
4.98,3.125,0,0,0,0,0
4.981,3.125,0,0,0,0,0
4.982,2.8125,0,0,0,0,0
4.983,2.5,0,0,0,0,0
4.984,2.5,0,0,0,0,0
4.985,1.875,0,0,0,0,0
4.986,1.5625,0,0,0,0,0
4.987,1.875,0,0,0,0,0
4.988,1.5625,0,0,0,0,0
4.989,1.875,0,0,0,0,0
4.99,2.5,0,0,0,0,0
4.991,3.125,0,0,0,0,0
4.992,2.1875,0,0,0,0,0
4.993,2.5,0,0,0,0,0
4.994,2.8125,0,0,0,0,0
4.995,3.125,0,0,0,0,0
4.996,3.125,0,0,0,0,0
4.997,3.125,0,0,0,0,0
4.998,3.125,0,0,0,0,0
4.999,3.125,0,0,0,0,0
5,3.4375,0,0,0,0,0
5.001,3.125,0,0,0,0,0
5.002,3.125,0,0,0,0,0
5.003,3.125,0,0,0,0,0
5.004,3.125,0,0,0,0,0
5.005,3.125,0,0,0,0,0
5.006,2.8125,0,0,0,0,0
5.007,3.125,0,0,0,0,0
5.008,2.5,0,0,0,0,0
5.009,2.5,0,0,0,0,0
5.01,1.5625,0,0,0,0,0
5.011,1.875,0,0,0,0,0
5.012,1.5625,0,0,0,0,0
5.013,1.875,0,0,0,0,0
5.014,2.1875,0,0,0,0,0
5.015,1.875,0,0,0,0,0
5.016,1.875,0,0,0,0,0
5.017,1.25,0,0,0,0,0
5.018,0.3125,0,0,0,0,0
5.019,0.625,0,0,0,0,0
5.02,0.3125,0,0,0,0,0
5.021,0.625,0,0,0,0,0
5.022,0.3125,0,0,0,0,0
5.023,0,0,0,0,0,0
5.024,0,0,0,0,0,0
5.025,-0.625,0,0,0,0,0
5.026,0,0,0,0,0,0
5.027,0.625,0,0,0,0,0
5.028,0.3125,0,0,0,0,0
5.029,0,0,0,0,0,0
5.03,0.3125,0,0,0,0,0
5.031,0.625,0,0,0,0,0
5.032,0.9375,0,0,0,0,0
5.033,0.625,0,0,0,0,0
5.034,1.25,0,0,0,0,0
5.035,1.25,0,0,0,0,0
5.036,0.9375,0,0,0,0,0
5.037,0.625,0,0,0,0,0
5.038,0.9375,0,0,0,0,0
5.039,0.625,0,0,0,0,0
5.04,0.3125,0,0,0,0,0
5.041,0,0,0,0,0,0
5.042,0.3125,0,0,0,0,0
5.043,-0.625,0,0,0,0,0
5.044,0,0,0,0,0,0
5.045,0,0,0,0,0,0
5.046,-0.3125,0,0,0,0,0
5.047,0.625,0,0,0,0,0
5.048,0.9375,0,0,0,0,0
5.049,1.25,0,0,0,0,0
5.05,0.625,0,0,0,0,0
5.051,1.25,0,0,0,0,0
5.052,1.25,0,0,0,0,0
5.053,1.25,0,0,0,0,0
5.054,1.25,0,0,0,0,0
5.055,0.625,0,0,0,0,0
5.056,0.625,0,0,0,0,0
5.057,0.625,0,0,0,0,0
5.058,1.25,0,0,0,0,0
5.059,0.625,0,0,0,0,0
5.06,0.625,0,0,0,0,0
5.061,0.625,0,0,0,0,0
5.062,0.625,0,0,0,0,0
5.063,0.625,0,0,0,0,0
5.064,0.3125,0,0,0,0,0
5.065,0,0,0,0,0,0
5.066,-0.625,0,0,0,0,0
5.067,-0.625,0,0,0,0,0
5.068,-0.3125,0,0,0,0,0
5.069,-0.625,0,0,0,0,0
5.07,-0.3125,0,0,0,0,0
5.071,0,0,0,0,0,0
5.072,0,0,0,0,0,0
5.073,0,0,0,0,0,0
5.074,-0.3125,0,0,0,0,0
5.075,-0.625,0,0,0,0,0
5.076,-0.3125,0,0,0,0,0
5.077,-0.625,0,0,0,0,0
5.078,-0.3125,0,0,0,0,0
5.079,0,0,0,0,0,0
5.08,0.3125,0,0,0,0,0
5.081,0.625,0,0,0,0,0
5.082,-0.3125,0,0,0,0,0
5.083,0,0,0,0,0,0
5.084,0,0,0,0,0,0
5.085,0,0,0,0,0,0
5.086,0.3125,0,0,0,0,0
5.087,0.625,0,0,0,0,0
5.088,1.5625,0,0,0,0,0
5.089,1.875,0,0,0,0,0
5.09,2.1875,0,0,0,0,0
5.091,2.5,0,0,0,0,0
5.092,1.875,0,0,0,0,0
5.093,1.875,0,0,0,0,0
5.094,2.5,0,0,0,0,0
5.095,2.5,0,0,0,0,0
5.096,2.5,0,0,0,0,0
5.097,2.5,0,0,0,0,0
5.098,2.8125,1,0,0,0,0
5.099,2.5,0,0,0,0,0
5.1,3.4375,0,0,0,0,0
5.101,3.75,0,0,0,0,0
5.102,4.0625,0,0,0,0,0
5.103,4.375,0,0,0,0,0
5.104,5.3125,0,0,0,0,0
5.105,5.625,0,0,0,0,0
5.106,6.875,0,0,0,0,0
5.107,7.5,0,0,0,0,0
5.108,8.75,0,0,0,0,0
5.109,9.375,0,0,0,0,0
5.11,10.938,0,0,0,0,0
5.111,11.875,0,0,0,0,0
5.112,13.75,0,0,0,0,0
5.113,16.25,0,0,0,0,0
5.114,19.375,0,0,0,0,0
5.115,21.875,0,0,0,0,0
5.116,23.75,0,0,0,0,0
5.117,26.25,0,0,0,0,0
5.118,29.375,0,0,0,0,0
5.119,31.875,0,0,0,0,0
5.12,35,0,0,0,0,0
5.121,37.5,0,0,0,0,0
5.122,41.875,0,0,0,0,0
5.123,45.625,0,0,0,0,0
5.124,50,0,0,0,0,0
5.125,53.75,0,0,0,0,0
5.126,58.75,0,0,0,0,0
5.127,63.125,0,0,0,0,0
5.128,66.875,0,0,0,0,0
5.129,70.625,0,0,0,0,0
5.13,74.063,0,0,0,0,0
5.131,76.875,0,0,0,0,0
5.132,80.625,0,0,0,0,0
5.133,83.125,0,0,0,0,0
5.134,86.563,0,0,0,0,0
5.135,88.75,0,0,0,0,0
5.136,90.313,0,0,0,0,0
5.137,90.625,0,0,0,0,0
5.138,91.25,0,0,0,0,0
5.139,91.875,0,1,0,0,0
5.14,92.813,0,0,0,0,0
5.141,92.5,0,0,0,0,0
5.142,92.5,0,0,0,0,0
5.143,89.375,0,0,0,0,0
5.144,85.625,0,0,0,0,0
5.145,80,0,0,0,0,0
5.146,71.25,0,0,0,0,0
5.147,62.5,0,0,0,0,0
5.148,55.313,0,0,0,0,0
5.149,50,0,0,0,0,0
5.15,44.063,0,0,0,0,0
5.151,38.75,0,0,0,0,0
5.152,32.188,0,0,0,0,0
5.153,23.75,0,0,0,0,0
5.154,15,0,0,0,0,0
5.155,6.875,0,0,0,0,0
5.156,-0.3125,0,0,0,0,0
5.157,-5.625,0,0,0,0,0
5.158,-10,0,0,0,0,0
5.159,-13.75,0,0,0,0,0
5.16,-15.938,0,0,0,0,0
5.161,-16.875,0,0,0,0,0
5.162,-18.125,0,0,0,0,0
5.163,-18.125,0,0,0,0,0
5.164,-18.438,0,0,0,0,0
5.165,-18.125,0,0,0,0,0
5.166,-17.813,0,0,0,0,0
5.167,-16.875,0,0,0,0,0
5.168,-15.313,0,0,0,0,0
5.169,-13.75,0,0,0,0,0
5.17,-13.75,0,0,0,0,0
5.171,-13.75,0,0,0,0,0
5.172,-13.75,0,0,0,0,0
5.173,-12.5,0,0,0,0,0
5.174,-11.25,0,0,0,0,0
5.175,-9.375,0,0,0,0,0
5.176,-8.125,0,0,0,0,0
5.177,-8.125,0,0,0,0,0
5.178,-7.5,0,0,0,0,0
5.179,-6.875,0,0,0,0,0
5.18,-6.875,0,0,0,0,0
5.181,-6.25,0,0,0,0,0
5.182,-5.3125,0,0,0,0,0
5.183,-5,0,0,1,0,0
5.184,-5,0,0,0,0,0
5.185,-4.375,0,0,0,0,0
5.186,-5.625,0,0,0,0,0
5.187,-5.625,0,0,0,0,0
5.188,-4.375,0,0,0,0,0
5.189,-3.75,0,0,0,0,0
5.19,-3.75,0,0,0,0,0
5.191,-3.75,0,0,0,0,0
5.192,-3.75,0,0,0,0,0
5.193,-3.75,0,0,0,0,0
5.194,-4.6875,0,0,0,0,0
5.195,-4.375,0,0,0,0,0
5.196,-4.6875,0,0,0,0,0
5.197,-4.375,0,0,0,0,0
5.198,-4.0625,0,0,0,0,0
5.199,-3.75,0,0,0,0,0
5.2,-4.0625,0,0,0,0,0
5.201,-4.375,0,0,0,0,0
5.202,-4.375,0,0,0,0,0
5.203,-4.375,0,0,0,0,0
5.204,-4.0625,0,0,0,0,0
5.205,-3.75,0,0,0,0,0
5.206,-3.75,0,0,0,0,0
5.207,-3.75,0,0,0,0,0
5.208,-3.75,0,0,0,0,0
5.209,-3.75,0,0,0,0,0
5.21,-3.75,0,0,0,0,0
5.211,-3.75,0,0,0,0,0
5.212,-3.4375,0,0,0,0,0
5.213,-3.125,0,0,0,0,0
5.214,-3.4375,0,0,0,0,0
5.215,-3.125,0,0,0,0,0
5.216,-3.75,0,0,0,0,0
5.217,-3.75,0,0,0,0,0
5.218,-3.75,0,0,0,0,0
5.219,-3.75,0,0,0,0,0
5.22,-3.75,0,0,0,0,0
5.221,-3.75,0,0,0,0,0
5.222,-3.125,0,0,0,0,0
5.223,-3.125,0,0,0,0,0
5.224,-3.75,0,0,0,0,0
5.225,-3.75,0,0,0,0,0
5.226,-3.75,0,0,0,0,0
5.227,-3.75,0,0,0,0,0
5.228,-3.4375,0,0,0,0,0
5.229,-3.125,0,0,0,0,0
5.23,-3.4375,0,0,0,0,0
5.231,-3.75,0,0,0,0,0
5.232,-4.375,0,0,0,0,0
5.233,-4.375,0,0,0,0,0
5.234,-4.375,0,0,0,0,0
5.235,-4.375,0,0,0,0,0
5.236,-5,0,0,0,0,0
5.237,-5,0,0,0,0,0
5.238,-4.6875,0,0,0,0,0
5.239,-4.375,0,0,0,0,0
5.24,-4.375,0,0,0,0,0
5.241,-3.75,0,0,0,0,0
5.242,-4.0625,0,0,0,0,0
5.243,-3.75,0,0,0,0,0
5.244,-3.75,0,0,0,0,0
5.245,-3.75,0,0,0,0,0
5.246,-4.0625,0,0,0,0,0
5.247,-3.75,0,0,0,0,0
5.248,-4.0625,0,0,0,0,0
5.249,-4.375,0,0,0,0,0
5.25,-4.6875,0,0,0,0,0
5.251,-5,0,0,0,0,0
5.252,-5,0,0,0,0,0
5.253,-5,0,0,0,0,0
5.254,-5,0,0,0,0,0
5.255,-5,0,0,0,0,0
5.256,-5,0,0,0,0,0
5.257,-5,0,0,0,0,0
5.258,-5.625,0,0,0,0,0
5.259,-5.625,0,0,0,0,0
5.26,-5.9375,0,0,0,0,0
5.261,-6.25,0,0,0,0,0
5.262,-5.3125,0,0,0,0,0
5.263,-5,0,0,0,0,0
5.264,-5.3125,0,0,0,0,0
5.265,-5.625,0,0,0,0,0
5.266,-5.3125,0,0,0,0,0
5.267,-5,0,0,0,0,0
5.268,-5.3125,0,0,0,0,0
5.269,-5,0,0,0,0,0
5.27,-5,0,0,0,0,0
5.271,-5,0,0,0,0,0
5.272,-5,0,0,0,0,0
5.273,-5,0,0,0,0,0
5.274,-4.6875,0,0,0,0,0
5.275,-3.75,0,0,0,0,0
5.276,-3.75,0,0,0,0,0
5.277,-3.75,0,0,0,0,0
5.278,-3.75,0,0,0,0,0
5.279,-4.375,0,0,0,0,0
5.28,-3.4375,0,0,0,0,0
5.281,-3.75,0,0,0,0,0
5.282,-3.4375,0,0,0,0,0
5.283,-3.75,0,0,0,0,0
5.284,-4.0625,0,0,0,0,0
5.285,-5,0,0,0,0,0
5.286,-5.3125,0,0,0,0,0
5.287,-5.625,0,0,0,0,0
5.288,-5.3125,0,0,0,0,0
5.289,-5,0,0,0,0,0
5.29,-5.3125,0,0,0,0,0
5.291,-5.625,0,0,0,0,0
5.292,-5,0,0,0,0,0
5.293,-5,0,0,0,0,0
5.294,-5.3125,0,0,0,0,0
5.295,-5.625,0,0,0,0,0
5.296,-5.3125,0,0,0,0,0
5.297,-5,0,0,0,0,0
5.298,-5.3125,0,0,0,0,0
5.299,-5,0,0,0,0,0
5.3,-5,0,0,0,0,0
5.301,-5,0,0,0,0,0
5.302,-5,0,0,0,0,0
5.303,-5,0,0,0,0,0
5.304,-5,0,0,0,0,0
5.305,-5,0,0,0,0,0
5.306,-5.3125,0,0,0,0,0
5.307,-5,0,0,0,0,0
5.308,-5.3125,0,0,0,0,0
5.309,-5.625,0,0,0,0,0
5.31,-5.625,0,0,0,0,0
5.311,-5.625,0,0,0,0,0
5.312,-5.625,0,0,0,0,0
5.313,-6.25,0,0,0,0,0
5.314,-5.9375,0,0,0,0,0
5.315,-6.25,0,0,0,0,0
5.316,-6.5625,0,0,0,0,0
5.317,-6.875,0,0,0,0,0
5.318,-6.5625,0,0,0,0,0
5.319,-6.25,0,0,0,0,0
5.32,-5.9375,0,0,0,0,0
5.321,-5.625,0,0,0,0,0
5.322,-5.625,0,0,0,0,0
5.323,-6.25,0,0,0,0,0
5.324,-6.25,0,0,0,0,0
5.325,-6.25,0,0,0,0,0
5.326,-5.9375,0,0,0,0,0
5.327,-5.625,0,0,0,0,0
5.328,-5.9375,0,0,0,0,0
5.329,-6.25,0,0,0,0,0
5.33,-5.9375,0,0,0,0,0
5.331,-5.625,0,0,0,0,0
5.332,-5.625,0,0,0,0,0
5.333,-5.625,0,0,0,0,0
5.334,-5.3125,0,0,0,0,0
5.335,-5,0,0,0,0,0
5.336,-5,0,0,0,0,0
5.337,-5,0,0,0,0,0
5.338,-4.6875,0,0,0,0,0
5.339,-4.375,0,0,0,0,0
5.34,-4.6875,0,0,0,0,0
5.341,-5,0,0,0,0,0
5.342,-5.625,0,0,0,0,0
5.343,-6.25,0,0,0,0,0
5.344,-6.875,0,0,0,0,0
5.345,-7.5,0,0,0,0,0
5.346,-7.8125,0,0,0,0,0
5.347,-7.5,0,0,0,0,0
5.348,-7.5,0,0,0,0,0
5.349,-7.5,0,0,0,0,0
5.35,-7.8125,0,0,0,0,0
5.351,-7.5,0,0,0,0,0
5.352,-7.5,0,0,0,0,0
5.353,-6.875,0,0,0,0,0
5.354,-6.875,0,0,0,0,0
5.355,-6.875,0,0,0,0,0
5.356,-6.5625,0,0,0,0,0
5.357,-6.25,0,0,0,0,0
5.358,-6.5625,0,0,0,0,0
5.359,-7.5,0,0,0,0,0
5.36,-6.875,0,0,0,0,0
5.361,-6.875,0,0,0,0,0
5.362,-6.5625,0,0,0,0,0
5.363,-6.875,0,0,0,0,0
5.364,-7.1875,0,0,0,0,0
5.365,-7.5,0,0,0,0,0
5.366,-7.5,0,0,0,0,0
5.367,-6.875,0,0,0,0,0
5.368,-7.5,0,0,0,0,0
5.369,-6.875,0,0,0,0,0
5.37,-7.1875,0,0,0,0,0
5.371,-7.5,0,0,0,0,0
5.372,-7.1875,0,0,0,0,0
5.373,-6.875,0,0,0,0,0
5.374,-7.5,0,0,0,0,0
5.375,-6.875,0,0,0,0,0
5.376,-6.875,0,0,0,0,0
5.377,-6.875,0,0,0,0,0
5.378,-7.5,0,0,0,0,0
5.379,-7.5,0,0,0,0,0
5.38,-7.1875,0,0,0,0,0
5.381,-7.5,0,0,0,0,0
5.382,-8.125,0,0,0,0,0
5.383,-8.125,0,0,0,0,0
5.384,-8.4375,0,0,0,0,0
5.385,-8.75,0,0,0,0,0
5.386,-8.75,0,0,0,0,0
5.387,-8.75,0,0,0,0,0
5.388,-8.75,0,0,0,0,0
5.389,-8.75,0,0,0,0,0
5.39,-8.75,0,0,0,0,0
5.391,-8.75,0,0,0,0,0
5.392,-8.75,0,0,0,0,0
5.393,-8.75,0,0,0,0,0
5.394,-8.75,0,0,0,0,0
5.395,-8.75,0,0,0,0,0
5.396,-8.75,0,0,0,0,0
5.397,-8.75,0,0,0,0,0
5.398,-8.4375,0,0,0,0,0
5.399,-8.75,0,0,0,0,0
5.4,-8.75,0,0,0,0,0
5.401,-8.75,0,0,0,0,0
5.402,-9.0625,0,0,0,0,0
5.403,-9.375,0,0,0,0,0
5.404,-9.375,0,0,0,0,0
5.405,-9.375,0,0,0,0,0
5.406,-9.0625,0,0,0,0,0
5.407,-9.375,0,0,0,0,0
5.408,-9.0625,0,0,0,0,0
5.409,-9.375,0,0,0,0,0
5.41,-9.0625,0,0,0,0,0
5.411,-8.75,0,0,0,0,0
5.412,-9.6875,0,0,0,0,0
5.413,-9.375,0,0,0,0,0
5.414,-9.375,0,0,0,0,0
5.415,-9.375,0,0,0,0,0
5.416,-9.6875,0,0,0,0,0
5.417,-10,0,0,0,0,0
5.418,-10.625,0,0,0,0,0
5.419,-10.625,0,0,0,0,0
5.42,-10.625,0,0,0,0,0
5.421,-10.625,0,0,0,0,0
5.422,-10.625,0,0,0,0,0
5.423,-10.625,0,0,0,0,0
5.424,-10,0,0,0,0,0
5.425,-10,0,0,0,0,0
5.426,-10.625,0,0,0,0,0
5.427,-10,0,0,0,0,0
5.428,-10.313,0,0,0,0,0
5.429,-10.625,0,0,0,0,0
5.43,-10.938,0,0,0,0,0
5.431,-11.25,0,0,0,0,0
5.432,-11.25,0,0,0,0,0
5.433,-11.25,0,0,0,0,0
5.434,-11.25,0,0,0,0,0
5.435,-11.25,0,0,0,0,0
5.436,-10.938,0,0,0,0,0
5.437,-11.25,0,0,0,0,0
5.438,-11.25,0,0,0,0,0
5.439,-11.25,0,0,0,0,0
5.44,-10.938,0,0,0,0,0
5.441,-10.625,0,0,0,0,0
5.442,-10.625,0,0,0,0,0
5.443,-10,0,0,0,0,0
5.444,-10.938,0,0,0,0,0
5.445,-11.25,0,0,0,0,0
5.446,-11.25,0,0,0,1,0
5.447,-11.25,0,0,0,0,0
5.448,-11.563,0,0,0,0,0
5.449,-11.875,0,0,0,0,0
5.45,-11.563,0,0,0,0,0
5.451,-11.875,0,0,0,0,0
5.452,-11.875,0,0,0,0,0
5.453,-11.875,0,0,0,0,0
5.454,-11.25,0,0,0,0,0
5.455,-10.625,0,0,0,0,0
5.456,-10.625,0,0,0,0,0
5.457,-10.625,0,0,0,0,0
5.458,-10.313,0,0,0,0,0
5.459,-10,0,0,0,0,0
5.46,-10,0,0,0,0,0
5.461,-10,0,0,0,0,0
