0,1.0625,0,0,0,0,0
0.001,1.5625,0,0,0,0,0
0.002,1.5625,0,0,0,0,0
0.003,1.5625,0,0,0,0,0
0.004,-0.4375,0,0,0,0,0
0.005,-2.8125,0,0,0,0,0
0.006,-2.375,0,0,0,0,0
0.007,-2.5,0,0,0,0,0
0.008,-2.8125,0,0,0,0,0
0.009,-2.5,0,0,0,0,0
0.01,-2.6875,0,0,0,0,0
0.011,-2.1875,0,0,0,0,0
0.012,-1.3125,0,0,0,0,0
0.013,-1.25,0,0,0,0,0
0.014,-1,0,0,0,0,0
0.015,0,0,0,0,0,0
0.016,0.3125,0,0,0,0,0
0.017,0.625,0,0,0,0,0
0.018,0.625,0,0,0,0,0
0.019,0.3125,0,0,0,0,0
0.02,-0.3125,0,0,0,0,0
0.021,-0.9375,0,0,0,0,0
0.022,-1.4375,0,0,0,0,0
0.023,-2.5,0,0,0,0,0
0.024,-2.1875,0,0,0,0,0
0.025,-1.875,0,0,0,0,0
0.026,-0.9375,0,0,0,0,0
0.027,-1.25,0,0,0,0,0
0.028,-1.5,0,0,0,0,0
0.029,-1.875,0,0,0,0,0
0.03,-1.25,0,0,0,0,0
0.031,-1.25,0,0,0,0,0
0.032,-1.25,0,0,0,0,0
0.033,-0.9375,0,0,0,0,0
0.034,-1.0625,0,0,0,0,0
0.035,-1.25,0,0,0,0,0
0.036,-1.75,0,0,0,0,0
0.037,-1.25,0,0,0,0,0
0.038,-1,0,0,0,0,0
0.039,-0.3125,0,0,0,0,0
0.04,-1.125,0,0,0,0,0
0.041,-1.25,0,0,0,0,0
0.042,-1.5625,0,0,0,0,0
0.043,-1.5625,0,0,0,0,0
0.044,-2.3125,0,0,0,0,0
0.045,-2.8125,0,0,0,0,0
0.046,-1.875,0,0,0,0,0
0.047,-1.5625,0,0,0,0,0
0.048,-0.375,0,0,0,0,0
0.049,0.625,0,0,0,0,0
0.05,-0.3125,0,0,0,0,0
0.051,-0.3125,0,0,0,0,0
0.052,0.4375,0,0,0,0,0
0.053,0.625,0,0,0,0,0
0.054,0.9375,0,0,0,0,0
0.055,1.5625,0,0,0,0,0
0.056,0,0,0,0,0,0
0.057,-0.625,0,0,0,0,0
0.058,-0.9375,0,0,0,0,0
0.059,-0.9375,0,0,0,0,0
0.06,-0.75,0,0,0,0,0
0.061,-1.25,0,0,0,0,0
0.062,-1.125,0,0,0,0,0
0.063,-1.25,0,0,0,0,0
0.064,-1.8125,0,0,0,0,0
0.065,-2.5,0,0,0,0,0
0.066,-2.3125,0,0,0,0,0
0.067,-2.5,0,0,0,0,0
0.068,-1.9375,0,0,0,0,0
0.069,-1.875,0,0,0,0,0
0.07,-1.5625,0,0,0,0,0
0.071,-0.9375,0,0,0,0,0
0.072,0.125,0,0,0,0,0
0.073,0,0,0,0,0,0
0.074,0,0,0,0,0,0
0.075,-0.625,0,0,0,0,0
0.076,-0.3125,0,0,0,0,0
0.077,-0.3125,0,0,0,0,0
0.078,0.9375,0,0,0,0,0
0.079,1.5625,0,0,0,0,0
0.08,1.5625,0,0,0,0,0
0.081,2.8125,0,0,0,0,0
0.082,1.4375,0,0,0,0,0
0.083,-0.625,0,0,0,0,0
0.084,-1.5625,0,0,0,0,0
0.085,-3.125,0,0,0,0,0
0.086,-2.8125,0,0,0,0,0
0.087,-2.5,0,0,0,0,0
0.088,-1.375,0,0,0,0,0
0.089,-0.3125,0,0,0,0,0
0.09,-0.1875,0,0,0,0,0
0.091,0.3125,0,0,0,0,0
0.092,0.1875,0,0,0,0,0
0.093,0.3125,0,0,0,0,0
0.094,-0.125,0,0,0,0,0
0.095,-0.3125,0,0,0,0,0
0.096,-1.6875,0,0,0,0,0
0.097,-3.125,0,0,0,0,0
0.098,-2.1875,0,0,0,0,0
0.099,-2.1875,0,0,0,0,0
0.1,-1.875,0,0,0,0,0
0.101,-1.25,0,0,0,0,0
0.102,-1.5,0,0,0,0,0
0.103,-1.5625,0,0,0,0,0
0.104,-1.75,0,0,0,0,0
0.105,-1.5625,0,0,0,0,0
0.106,-0.5,0,0,0,0,0
0.107,0,0,0,0,0,0
0.108,-1.375,0,0,0,0,0
0.109,-1.875,0,0,0,0,0
0.11,-2,0,0,0,0,0
0.111,-3.125,0,0,0,0,0
0.112,-3.3125,0,0,0,0,0
0.113,-3.125,0,0,0,0,0
0.114,-1.875,0,0,0,0,0
0.115,-1.875,0,0,0,0,0
0.116,-1.5625,0,0,0,0,0
0.117,-1.5625,0,0,0,0,0
0.118,-1.5,0,0,0,0,0
0.119,-1.5625,0,0,0,0,0
0.12,-0.9375,0,0,0,0,0
0.121,-1.25,0,0,0,0,0
0.122,-2.1875,0,0,0,0,0
0.123,-2.8125,0,0,0,0,0
0.124,-2.0625,0,0,0,0,0
0.125,-2.5,0,0,0,0,0
0.126,-1.5625,0,0,0,0,0
0.127,-2.1875,0,0,0,0,0
0.128,-2.0625,0,0,0,0,0
0.129,-1.5625,0,0,0,0,0
0.13,-1.25,0,0,0,0,0
0.131,-0.625,0,0,0,0,0
0.132,-0.3125,0,0,0,0,0
0.133,-0.3125,0,0,0,0,0
0.134,-0.4375,0,0,0,0,0
0.135,-0.625,0,0,0,0,0
0.136,-0.125,0,0,0,0,0
0.137,-0.3125,0,0,0,0,0
0.138,-0.3125,0,0,0,0,0
0.139,-0.3125,0,0,0,0,0
0.14,-1.25,0,0,0,0,0
0.141,-0.625,0,0,0,0,0
0.142,-0.9375,0,0,0,0,0
0.143,-0.625,0,0,0,0,0
0.144,-0.625,0,0,0,0,0
0.145,-1.25,0,0,0,0,0
0.146,-1.25,0,0,0,0,0
0.147,-1.875,0,0,0,0,0
0.148,-2.4375,0,0,0,0,0
0.149,-1.5625,0,0,0,0,0
0.15,-1.125,0,0,0,0,0
0.151,-0.625,0,0,0,0,0
0.152,-1.4375,0,0,0,0,0
0.153,-0.3125,0,0,0,0,0
0.154,0.5625,0,0,0,0,0
0.155,0.9375,0,0,0,0,0
0.156,1.25,0,0,0,0,0
0.157,0,0,0,0,0,0
0.158,0.1875,0,0,0,0,0
0.159,0.625,0,0,0,0,0
0.16,1.1875,0,0,0,0,0
0.161,0.625,0,0,0,0,0
0.162,1.0625,0,0,0,0,0
0.163,0.9375,0,0,0,0,0
0.164,1.25,0,0,0,0,0
0.165,1.5625,0,0,0,0,0
0.166,1.25,0,0,0,0,0
0.167,1.5625,0,0,0,0,0
0.168,1.4375,0,0,0,0,0
0.169,1.25,0,0,0,0,0
0.17,0.875,0,0,0,0,0
0.171,0.625,0,0,0,0,0
0.172,-0.3125,0,0,0,0,0
0.173,-1.25,0,0,0,0,0
0.174,-0.5,0,0,0,0,0
0.175,-0.3125,0,0,0,0,0
0.176,-0.6875,0,0,0,0,0
0.177,-0.3125,0,0,0,0,0
0.178,0,0,0,0,0,0
0.179,0.3125,0,0,0,0,0
0.18,0.3125,0,0,0,0,0
0.181,0.625,0,0,0,0,0
0.182,0.5,0,0,0,0,0
0.183,0.3125,0,0,0,0,0
0.184,0.5,0,0,0,0,0
0.185,0.9375,0,0,0,0,0
0.186,-0.75,0,0,0,0,0
0.187,-0.9375,0,0,0,0,0
0.188,-1.25,0,0,0,0,0
0.189,-1.875,0,0,0,0,0
0.19,-2,0,0,0,0,0
0.191,-1.875,0,0,0,0,0
0.192,-2.375,0,0,0,0,0
0.193,-2.5,0,0,0,0,0
0.194,-1.875,0,0,0,0,0
0.195,-1.25,0,0,0,0,0
0.196,-1.6875,0,0,0,0,0
0.197,-1.875,0,0,0,0,0
0.198,-1.75,0,0,0,0,0
0.199,-1.25,0,0,0,0,0
0.2,-0.9375,0,0,0,0,0
0.201,-0.9375,0,0,0,0,0
0.202,-0.75,0,0,0,0,0
0.203,-0.625,0,0,0,0,0
0.204,-1.5625,0,0,0,0,0
0.205,-2.8125,0,0,0,0,0
0.206,-3.25,0,0,0,0,0
0.207,-4.375,0,0,0,0,0
0.208,-5.9375,0,0,0,0,0
0.209,-7.1875,0,0,0,0,0
0.21,-6.25,0,0,0,0,0
0.211,-6.5625,0,0,0,0,0
0.212,-6.25,0,0,0,0,0
0.213,-5.9375,0,0,0,0,0
0.214,-5.6875,0,0,0,0,0
0.215,-5,0,0,0,0,0
0.216,-4.875,0,0,0,0,0
0.217,-4.375,0,0,0,0,0
0.218,-3.625,0,0,0,0,0
0.219,-3.4375,0,0,0,0,0
0.22,-5.125,0,0,0,0,0
0.221,-6.875,0,0,0,0,0
0.222,-6.25,0,0,0,0,0
0.223,-6.25,0,0,0,0,0
0.224,-5.8125,0,0,0,0,0
0.225,-5.625,0,0,0,0,0
0.226,-5,0,0,0,0,0
0.227,-4.0625,0,0,0,0,0
0.228,-4.0625,0,0,0,0,0
0.229,-4.6875,0,0,0,0,0
0.23,-2.875,0,0,0,0,0
0.231,-2.1875,0,0,0,0,0
0.232,-3.0625,0,0,0,0,0
0.233,-3.4375,0,0,0,0,0
0.234,-2.6875,0,0,0,0,0
0.235,-1.5625,0,0,0,0,0
0.236,-1.6875,0,0,0,0,0
0.237,-1.875,0,0,0,0,0
0.238,-1.875,0,0,0,0,0
0.239,-1.5625,0,0,0,0,0
0.24,-1.25,0,0,0,0,0
0.241,-0.3125,0,0,0,0,0
0.242,-0.625,0,0,0,0,0
0.243,-1.25,0,0,0,0,0
0.244,0,0,0,0,0,0
0.245,0,0,0,0,0,0
0.246,0.4375,0,0,0,0,0
0.247,1.5625,0,0,0,0,0
0.248,0.8125,0,0,0,0,0
0.249,-0.3125,0,0,0,0,0
0.25,-1.375,0,0,0,0,0
0.251,-2.1875,0,0,0,0,0
0.252,-1.875,0,0,0,0,0
0.253,-1.875,0,0,0,0,0
0.254,-1.5625,0,0,0,0,0
0.255,-0.9375,0,0,0,0,0
0.256,-0.75,0,0,0,0,0
0.257,-0.9375,0,0,0,0,0
0.258,-0.125,0,0,0,0,0
0.259,0.3125,0,0,0,0,0
0.26,-0.25,0,0,0,0,0
0.261,-0.9375,0,0,0,0,0
0.262,-1.0625,0,0,0,0,0
0.263,-1.25,0,0,0,0,0
0.264,-1.1875,0,0,0,0,0
0.265,-1.875,0,0,0,0,0
0.266,-0.8125,0,0,0,0,0
0.267,-0.625,0,0,0,0,0
0.268,0.4375,0,0,0,0,0
0.269,1.25,0,0,0,0,0
0.27,0.3125,0,0,0,0,0
0.271,-0.625,0,0,0,0,0
0.272,-1.1875,0,0,0,0,0
0.273,-2.1875,0,0,0,0,0
0.274,-1.25,0,0,0,0,0
0.275,-0.9375,0,0,0,0,0
0.276,-0.5,0,0,0,0,0
0.277,-0.3125,0,0,0,0,0
0.278,-0.75,0,0,0,0,0
0.279,-0.9375,0,0,0,0,0
0.28,-0.8125,0,0,0,0,0
0.281,-0.3125,0,0,0,0,0
0.282,0.3125,0,0,0,0,0
0.283,0.625,0,0,0,0,0
0.284,-0.625,0,0,0,0,0
0.285,-0.3125,0,0,0,0,0
0.286,-0.9375,0,0,0,0,0
0.287,0,0,0,0,0,0
0.288,-0.1875,0,0,0,0,0
0.289,0,0,0,0,0,0
0.29,-0.4375,0,0,0,0,0
0.291,-0.3125,0,0,0,0,0
0.292,0,0,0,0,0,0
0.293,0.3125,0,0,0,0,0
0.294,-0.125,0,0,0,0,0
0.295,0,0,0,0,0,0
0.296,-0.625,0,0,0,0,0
0.297,-1.875,0,0,0,0,0
0.298,-1.125,0,0,0,0,0
0.299,-0.9375,0,0,0,0,0
0.3,-0.6875,0,0,0,0,0
0.301,-0.625,0,0,0,0,0
0.302,-1.375,0,0,0,0,0
0.303,-0.9375,0,0,0,0,0
0.304,-0.9375,0,0,0,0,0
0.305,-0.9375,0,0,0,0,0
0.306,-1.0625,0,0,0,0,0
0.307,-1.5625,0,0,0,0,0
0.308,-1.5625,0,0,0,0,0
0.309,-2.1875,0,0,0,0,0
0.31,-1.75,0,0,0,0,0
0.311,-0.625,0,0,0,0,0
0.312,-0.625,0,0,0,0,0
0.313,0,0,0,0,0,0
0.314,-0.4375,0,0,0,0,0
0.315,-0.3125,0,0,0,0,0
0.316,-1.5625,0,0,0,0,0
0.317,-1.25,0,0,0,0,0
0.318,-1.0625,0,0,0,0,0
0.319,-0.625,0,0,0,0,0
0.32,0.3125,0,0,0,0,0
0.321,0,0,0,0,0,0
0.322,0.4375,0,0,0,0,0
0.323,-0.3125,0,0,0,0,0
0.324,-0.625,0,0,0,0,0
0.325,-0.625,0,0,0,0,0
0.326,0,0,0,0,0,0
0.327,0.3125,0,0,0,0,0
0.328,0.125,0,0,0,0,0
0.329,-0.3125,0,0,0,0,0
0.33,-1.375,0,0,0,0,0
0.331,-2.1875,0,0,0,0,0
0.332,-2.375,0,0,0,0,0
0.333,-2.5,0,0,0,0,0
0.334,-1.75,1,0,0,0,0
0.335,-0.625,0,0,0,0,0
0.336,-1.875,0,0,0,0,0
0.337,-2.1875,0,0,0,0,0
0.338,-3.3125,0,0,0,0,0
0.339,-4.0625,0,0,0,0,0
0.34,-4.875,0,0,0,0,0
0.341,-6.25,0,0,0,0,0
0.342,-6.125,0,0,0,0,0
0.343,-6.875,0,0,0,0,0
0.344,-7.8125,0,0,0,0,0
0.345,-8.75,0,0,0,0,0
0.346,-8.625,0,0,0,0,0
0.347,-8.75,0,0,0,0,0
0.348,-9.5625,0,0,0,0,0
0.349,-10.938,0,0,0,0,0
0.35,-11.563,0,0,0,0,0
0.351,-12.5,0,0,0,0,0
0.352,-13.438,0,0,0,0,0
0.353,-14.063,0,0,0,0,0
0.354,-15.938,0,0,0,0,0
0.355,-17.5,0,0,0,0,0
0.356,-19.375,0,0,0,0,0
0.357,-21.875,0,0,0,0,0
0.358,-23.938,0,0,0,0,0
0.359,-26.25,0,0,0,0,0
0.36,-28.125,0,0,0,0,0
0.361,-28.75,0,0,0,0,0
0.362,-29.688,0,0,0,0,0
0.363,-30.313,0,0,0,0,0
0.364,-31.875,0,0,0,0,0
0.365,-31.875,0,0,0,0,0
0.366,-30.5,0,0,0,0,0
0.367,-29.063,0,0,0,0,0
0.368,-26.875,0,0,0,0,0
0.369,-24.375,0,0,0,0,0
0.37,-20.813,0,0,0,0,0
0.371,-18.125,0,0,0,0,0
0.372,-15.938,0,0,0,0,0
0.373,-13.75,0,0,0,0,0
0.374,-9.25,0,0,0,0,0
0.375,-5,0,0,0,0,0
0.376,-1.6875,0,0,0,0,0
0.377,0.9375,0,0,0,0,0
0.378,3.75,0,0,0,0,0
0.379,7.1875,0,0,0,0,0
0.38,10.625,0,0,0,0,0
0.381,14.063,0,0,0,0,0
0.382,18.875,0,0,0,0,0
0.383,22.813,0,0,0,0,0
0.384,26.125,0,0,0,0,0
0.385,29.375,0,0,0,0,0
0.386,32.813,0,0,0,0,0
0.387,35.938,0,0,0,0,0
0.388,39.063,0,0,0,0,0
0.389,40,0,1,0,0,0
0.39,41.563,0,0,0,0,0
0.391,43.75,0,0,0,0,0
0.392,44.25,0,0,0,0,0
0.393,44.688,0,0,0,0,0
0.394,43.563,0,0,0,0,0
0.395,42.188,0,0,0,0,0
0.396,41.25,0,0,0,0,0
0.397,38.438,0,0,0,0,0
0.398,36.25,0,0,0,0,0
0.399,34.688,0,0,0,0,0
0.4,32.25,0,0,0,0,0
0.401,30,0,0,0,0,0
0.402,27.875,0,0,0,0,0
0.403,26.25,0,0,0,0,0
0.404,25.188,0,0,0,0,0
0.405,24.063,0,0,0,0,0
0.406,21.875,0,0,0,0,0
0.407,20,0,0,0,0,0
0.408,19.688,0,0,0,0,0
0.409,19.375,0,0,0,0,0
0.41,19.5,0,0,0,0,0
0.411,19.375,0,0,0,0,0
0.412,18.625,0,0,0,0,0
0.413,18.438,0,0,0,0,0
0.414,17.813,0,0,0,0,0
0.415,16.875,0,0,0,0,0
0.416,15.375,0,0,0,0,0
0.417,14.063,0,0,0,0,0
0.418,14.188,0,0,0,0,0
0.419,15,0,0,0,0,0
0.42,16.375,0,0,0,0,0
0.421,16.875,0,0,0,0,0
0.422,15.313,0,0,0,0,0
0.423,13.438,0,0,0,0,0
0.424,13.125,0,0,0,0,0
0.425,12.5,0,0,0,0,0
0.426,12.188,0,0,0,0,0
0.427,12.188,0,0,0,0,0
0.428,12.813,0,0,0,0,0
0.429,12.5,0,0,0,0,0
0.43,12.688,0,0,0,0,0
0.431,13.75,0,0,0,0,0
0.432,12.375,0,0,0,0,0
0.433,11.875,0,0,0,0,0
0.434,11.438,0,0,0,0,0
0.435,10.313,0,0,0,0,0
0.436,10.75,0,0,0,0,0
0.437,10.625,0,0,0,0,0
0.438,10.438,0,0,0,0,0
0.439,10.313,0,0,0,0,0
0.44,9.25,0,0,0,0,0
0.441,8.75,0,0,0,0,0
0.442,8,0,0,0,0,0
0.443,7.8125,0,0,0,0,0
0.444,7.9375,0,0,0,0,0
0.445,8.75,0,0,0,0,0
0.446,10.625,0,0,0,0,0
0.447,11.563,0,0,0,0,0
0.448,11.688,0,0,0,0,0
0.449,11.875,0,0,0,0,0
0.45,11.375,0,0,0,0,0
0.451,10.938,0,0,0,0,0
0.452,10.313,0,0,0,0,0
0.453,9.375,0,0,0,0,0
0.454,9.5,0,0,0,0,0
0.455,10,0,0,0,0,0
0.456,10.438,0,0,0,0,0
0.457,10.625,0,0,0,0,0
0.458,12,0,0,0,0,0
0.459,12.188,0,0,0,0,0
0.46,12,0,0,0,0,0
0.461,11.875,0,0,0,0,0
0.462,10.625,0,0,0,0,0
0.463,10,0,0,0,0,0
0.464,9.375,0,0,0,0,0
0.465,9.0625,0,0,0,0,0
0.466,8.625,0,0,0,0,0
0.467,8.125,0,0,0,0,0
0.468,7.1875,0,0,0,0,0
0.469,6.5625,0,0,0,0,0
0.47,6.375,0,0,0,0,0
0.471,6.25,0,0,0,0,0
0.472,5.625,0,0,0,0,0
0.473,5.625,0,0,0,0,0
0.474,4.6875,0,0,0,0,0
0.475,3.75,0,0,0,0,0
0.476,3,0,0,0,0,0
0.477,3.125,0,0,0,0,0
0.478,2.8125,0,0,0,0,0
0.479,2.5,0,0,0,0,0
0.48,2.1875,0,0,0,0,0
0.481,2.1875,0,0,0,0,0
0.482,1.75,0,0,0,0,0
0.483,1.25,0,0,0,0,0
0.484,0.625,0,0,0,0,0
0.485,0.625,0,0,0,0,0
0.486,0.8125,0,0,0,0,0
0.487,1.25,0,0,0,0,0
0.488,1.375,0,0,0,0,0
0.489,1.5625,0,0,0,0,0
0.49,1.25,0,0,0,0,0
0.491,0.625,0,0,0,0,0
0.492,0.625,0,0,1,0,0
0.493,0,0,0,0,0,0
0.494,-0.5,0,0,0,0,0
0.495,-1.5625,0,0,0,0,0
0.496,-1.0625,0,0,0,0,0
0.497,-1.25,0,0,0,0,0
0.498,-1.875,0,0,0,0,0
0.499,-2.5,0,0,0,0,0
0.5,-2.5,0,0,0,0,0
0.501,-2.1875,0,0,0,0,0
0.502,-0.8125,0,0,0,0,0
0.503,-0.625,0,0,0,0,0
0.504,-0.6875,0,0,0,0,0
0.505,0,0,0,0,0,0
0.506,0.25,0,0,0,0,0
0.507,0.625,0,0,0,0,0
0.508,-0.25,0,0,0,0,0
0.509,-0.9375,0,0,0,0,0
0.51,-0.5625,0,0,0,0,0
0.511,-1.25,0,0,0,0,0
0.512,-2,0,0,0,0,0
0.513,-2.1875,0,0,0,0,0
0.514,-2.0625,0,0,0,0,0
0.515,-1.25,0,0,0,0,0
0.516,-1.25,0,0,0,0,0
0.517,-1.875,0,0,0,0,0
0.518,-1.6875,0,0,0,0,0
0.519,-1.875,0,0,0,0,0
0.52,-2.4375,0,0,0,0,0
0.521,-2.8125,0,0,0,0,0
0.522,-1.4375,0,0,0,0,0
0.523,-0.9375,0,0,0,0,0
0.524,-1,0,0,0,0,0
0.525,-1.25,0,0,0,0,0
0.526,-0.125,0,0,0,0,0
0.527,0.3125,0,0,0,0,0
0.528,-0.8125,0,0,0,0,0
0.529,-2.5,0,0,0,0,0
0.53,-2.625,0,0,0,0,0
0.531,-2.5,0,0,0,0,0
0.532,-3.4375,0,0,0,0,0
0.533,-3.125,0,0,0,0,0
0.534,-2.6875,0,0,0,0,0
0.535,-2.8125,0,0,0,0,0
0.536,-3,0,0,0,0,0
0.537,-3.125,0,0,0,0,0
0.538,-2.3125,0,0,0,0,0
0.539,-1.5625,0,0,0,0,0
0.54,-1.5625,0,0,0,0,0
0.541,-1.25,0,0,0,0,0
0.542,-1.875,0,0,0,0,0
0.543,-1.5625,0,0,0,0,0
0.544,-0.625,0,0,0,0,0
0.545,-1.5625,0,0,0,0,0
0.546,-1.75,0,0,0,0,0
0.547,-1.875,0,0,0,0,0
0.548,-1.125,0,0,0,0,0
0.549,-0.3125,0,0,0,0,0
0.55,-1.25,0,0,0,0,0
0.551,-1.25,0,0,0,0,0
0.552,-1.5625,0,0,0,0,0
0.553,-1.25,0,0,0,0,0
0.554,-1.4375,0,0,0,0,0
0.555,-1.25,0,0,0,0,0
0.556,-1.6875,0,0,0,0,0
0.557,-3.125,0,0,0,0,0
0.558,-3.5625,0,0,0,0,0
0.559,-4.375,0,0,0,0,0
0.56,-4.0625,0,0,0,0,0
0.561,-3.75,0,0,0,0,0
0.562,-3.3125,0,0,0,0,0
0.563,-2.5,0,0,0,0,0
0.564,-3,0,0,0,0,0
0.565,-3.125,0,0,0,0,0
0.566,-3.875,0,0,0,0,0
0.567,-4.375,0,0,0,0,0
0.568,-4.375,0,0,0,0,0
0.569,-4.0625,0,0,0,0,0
0.57,-3.3125,0,0,0,0,0
0.571,-2.8125,0,0,0,0,0
0.572,-2.8125,0,0,0,0,0
0.573,-2.5,0,0,0,0,0
0.574,-2.0625,0,0,0,0,0
0.575,-2.1875,0,0,0,0,0
0.576,-1.875,0,0,0,0,0
0.577,-1.875,0,0,0,0,0
0.578,-2.375,0,0,0,0,0
0.579,-2.5,0,0,0,0,0
0.58,-2,0,0,0,0,0
0.581,-2.1875,0,0,0,0,0
0.582,-1.25,0,0,0,0,0
0.583,-1.5625,0,0,0,0,0
0.584,-0.6875,0,0,0,0,0
0.585,-0.3125,0,0,0,0,0
0.586,-0.8125,0,0,0,0,0
0.587,-1.25,0,0,0,0,0
0.588,-1.125,0,0,0,0,0
0.589,-2.5,0,0,0,0,0
0.59,-2.625,0,0,0,0,0
0.591,-3.4375,0,0,0,0,0
0.592,-2.875,0,0,0,0,0
0.593,-2.1875,0,0,0,0,0
0.594,-2.3125,0,0,0,0,0
0.595,-2.8125,0,0,0,0,0
0.596,-3,0,0,0,0,0
0.597,-3.4375,0,0,0,0,0
0.598,-3.625,0,0,0,0,0
0.599,-3.75,0,0,0,0,0
0.6,-4.5,0,0,0,0,0
0.601,-5,0,0,0,0,0
0.602,-5.5625,0,0,0,0,0
0.603,-6.25,0,0,0,0,0
0.604,-6.5625,0,0,0,0,0
0.605,-6.5625,0,0,0,0,0
0.606,-6.875,0,0,0,0,0
0.607,-6.875,0,0,0,0,0
0.608,-6.75,0,0,0,0,0
0.609,-6.875,0,0,0,0,0
0.61,-7.1875,0,0,0,0,0
0.611,-7.1875,0,0,0,0,0
0.612,-5.8125,0,0,0,0,0
0.613,-4.6875,0,0,0,0,0
0.614,-4.5625,0,0,0,0,0
0.615,-4.375,0,0,0,0,0
0.616,-5.4375,0,0,0,0,0
0.617,-6.25,0,0,0,0,0
0.618,-5.9375,0,0,0,0,0
0.619,-4.375,0,0,0,0,0
0.62,-5.1875,0,0,0,0,0
0.621,-4.6875,0,0,0,0,0
0.622,-5.3125,0,0,0,0,0
0.623,-5.3125,0,0,0,0,0
0.624,-5.1875,0,0,0,0,0
0.625,-4.6875,0,0,0,0,0
0.626,-6.125,0,0,0,0,0
0.627,-5.9375,0,0,0,0,0
0.628,-7.1875,0,0,0,0,0
0.629,-8.4375,0,0,0,0,0
0.63,-7.0625,0,0,0,0,0
0.631,-6.25,0,0,0,0,0
0.632,-6.125,0,0,0,0,0
0.633,-5.9375,0,0,0,0,0
0.634,-6.1875,0,0,0,0,0
0.635,-6.25,0,0,0,0,0
0.636,-6.375,0,0,0,0,0
0.637,-6.5625,0,0,0,0,0
0.638,-6.4375,0,0,0,0,0
0.639,-6.5625,0,0,0,0,0
0.64,-6.875,0,0,0,0,0
0.641,-6.875,0,0,0,0,0
0.642,-7.5,0,0,0,0,0
0.643,-7.8125,0,0,0,0,0
0.644,-8.25,0,0,0,0,0
0.645,-8.4375,0,0,0,0,0
0.646,-8.25,0,0,0,0,0
0.647,-7.8125,0,0,0,0,0
0.648,-7.1875,0,0,0,0,0
0.649,-6.875,0,0,0,0,0
0.65,-7.6875,0,0,0,1,0
0.651,-7.5,0,0,0,0,0
0.652,-7.3125,0,0,0,0,0
0.653,-7.8125,0,0,0,0,0
0.654,-6.875,0,0,0,0,0
0.655,-6.5625,0,0,0,0,0
0.656,-5.9375,0,0,0,0,0
0.657,-5.3125,0,0,0,0,0
0.658,-7,0,0,0,0,0
0.659,-8.4375,0,0,0,0,0
0.66,-7.8125,0,0,0,0,0
0.661,-7.8125,0,0,0,0,0
0.662,-7.875,0,0,0,0,0
0.663,-8.125,0,0,0,0,0
0.664,-8.5625,0,0,0,0,0
0.665,-9.375,0,0,0,0,0
0.666,-8.75,0,0,0,0,0
0.667,-8.4375,0,0,0,0,0
0.668,-8,0,0,0,0,0
0.669,-6.875,0,0,0,0,0
0.67,-5.5,0,0,0,0,0
0.671,-5.3125,0,0,0,0,0
0.672,-5.8125,0,0,0,0,0
0.673,-5.3125,0,0,0,0,0
0.674,-4.8125,0,0,0,0,0
0.675,-5.9375,0,0,0,0,0
0.676,-5.75,0,0,0,0,0
0.677,-5.9375,0,0,0,0,0
0.678,-5.4375,0,0,0,0,0
0.679,-5,0,0,0,0,0
0.68,-5.625,0,0,0,0,0
0.681,-6.5625,0,0,0,0,0
0.682,-6.6875,0,0,0,0,0
0.683,-6.25,0,0,0,0,0
0.684,-5.4375,0,0,0,0,0
0.685,-4.375,0,0,0,0,0
0.686,-4.375,0,0,0,0,0
0.687,-4.0625,0,0,0,0,0
0.688,-5,0,0,0,0,0
0.689,-6.875,0,0,0,0,0
0.69,-7.375,0,0,0,0,0
0.691,-7.8125,0,0,0,0,0
0.692,-6.4375,0,0,0,0,0
0.693,-5.3125,0,0,0,0,0
0.694,-5.3125,0,0,0,0,0
0.695,-4.375,0,0,0,0,0
0.696,-4.6875,0,0,0,0,0
0.697,-4.375,0,0,0,0,0
0.698,-4.6875,0,0,0,0,0
0.699,-4.375,0,0,0,0,0
0.7,-4.6875,0,0,0,0,0
0.701,-4.0625,0,0,0,0,0
0.702,-3.9375,0,0,0,0,0
0.703,-3.125,0,0,0,0,0
0.704,-2.1875,0,0,0,0,0
0.705,-1.5625,0,0,0,0,0
0.706,-2.125,0,0,0,0,0
0.707,-2.1875,0,0,0,0,0
0.708,-3.3125,0,0,0,0,0
0.709,-4.0625,0,0,0,0,0
0.71,-3.4375,0,0,0,0,0
0.711,-2.8125,0,0,0,0,0
0.712,-2.3125,0,0,0,0,0
0.713,-1.875,0,0,0,0,0
0.714,-2.625,0,0,0,0,0
0.715,-2.5,0,0,0,0,0
0.716,-2.5,0,0,0,0,0
0.717,-1.875,0,0,0,0,0
0.718,-2.875,0,0,0,0,0
0.719,-2.5,0,0,0,0,0
0.72,-1.75,0,0,0,0,0
0.721,-1.5625,0,0,0,0,0
0.722,-1.125,0,0,0,0,0
0.723,-0.3125,0,0,0,0,0
0.724,-0.75,0,0,0,0,0
0.725,-0.625,0,0,0,0,0
0.726,-0.125,0,0,0,0,0
0.727,-0.625,0,0,0,0,0
0.728,-1.0625,0,0,0,0,0
0.729,-1.25,0,0,0,0,0
0.73,-0.1875,0,0,0,0,0
0.731,-0.625,0,0,0,0,0
0.732,0.4375,0,0,0,0,0
0.733,1.25,0,0,0,0,0
0.734,0.625,0,0,0,0,0
0.735,0.9375,0,0,0,0,0
0.736,0.1875,0,0,0,0,0
0.737,0,0,0,0,0,0
0.738,-0.125,0,0,0,0,0
0.739,0.3125,0,0,0,0,0
0.74,0.25,0,0,0,0,0
0.741,0.3125,0,0,0,0,0
0.742,0.1875,0,0,0,0,0
0.743,-0.3125,0,0,0,0,0
0.744,0.1875,0,0,0,0,0
0.745,0,0,0,0,0,1
0.746,0.625,0,0,0,0,0
0.747,0.9375,0,0,0,0,0
0.748,0.3125,0,0,0,0,0
0.749,0.3125,0,0,0,0,0
0.75,-0.1875,0,0,0,0,0
0.751,0,0,0,0,0,0
0.752,0.3125,0,0,0,0,0
0.753,0.3125,0,0,0,0,0
0.754,0.4375,0,0,0,0,0
0.755,0.3125,0,0,0,0,0
0.756,0,0,0,0,0,0
0.757,0,0,0,0,0,0
0.758,-0.125,0,0,0,0,0
0.759,0,0,0,0,0,0
0.76,-0.125,0,0,0,0,0
0.761,0,0,0,0,0,0
0.762,0.9375,0,0,0,0,0
0.763,1.25,0,0,0,0,0
0.764,1.0625,0,0,0,0,0
0.765,0.3125,0,0,0,0,0
0.766,1.375,0,0,0,0,0
0.767,2.1875,0,0,0,0,0
0.768,1.875,0,0,0,0,0
0.769,1.5625,0,0,0,0,0
0.77,1.875,0,0,0,0,0
0.771,1.875,0,0,0,0,0
0.772,1.75,0,0,0,0,0
0.773,1.25,0,0,0,0,0
0.774,1.5625,0,0,0,0,0
0.775,2.1875,0,0,0,0,0
0.776,2.5,0,0,0,0,0
0.777,2.5,0,0,0,0,0
0.778,2.8125,0,0,0,0,0
0.779,2.8125,0,0,0,0,0
0.78,2.8125,0,0,0,0,0
0.781,2.5,0,0,0,0,0
0.782,2.5,0,0,0,0,0
0.783,2.5,0,0,0,0,0
0.784,0.8125,0,0,0,0,0
0.785,-0.3125,0,0,0,0,0
0.786,-0.3125,0,0,0,0,0
0.787,-0.625,0,0,0,0,0
0.788,0,0,0,0,0,0
0.789,-0.3125,0,0,0,0,0
0.79,0.75,0,0,0,0,0
0.791,0.9375,0,0,0,0,0
0.792,1.125,0,0,0,0,0
0.793,1.25,0,0,0,0,0
0.794,0.625,0,0,0,0,0
0.795,0.625,0,0,0,0,0
0.796,1.5625,0,0,0,0,0
0.797,1.5625,0,0,0,0,0
0.798,1.5625,0,0,0,0,0
0.799,2.1875,0,0,0,0,0
0.8,2.3125,0,0,0,0,0
0.801,2.1875,0,0,0,0,0
0.802,2.5,0,0,0,0,0
0.803,1.875,0,0,0,0,0
0.804,1.0625,0,0,0,0,0
0.805,0,0,0,0,0,0
0.806,-1.0625,0,0,0,0,0
0.807,-2.5,0,0,0,0,0
0.808,-2.6875,0,0,0,0,0
0.809,-2.8125,0,0,0,0,0
0.81,-1.6875,0,0,0,0,0
0.811,-1.25,0,0,0,0,0
0.812,-0.8125,0,0,0,0,0
0.813,-0.625,0,0,0,0,0
0.814,-0.3125,0,0,0,0,0
0.815,0.625,0,0,0,0,0
0.816,1.1875,0,0,0,0,0
0.817,0.9375,0,0,0,0,0
0.818,1.25,0,0,0,0,0
0.819,0.9375,0,0,0,0,0
0.82,0.5,0,0,0,0,0
0.821,0,0,0,0,0,0
0.822,0.1875,0,0,0,0,0
0.823,-0.9375,0,0,0,0,0
0.824,-0.9375,0,0,0,0,0
0.825,-0.9375,0,0,0,0,0
0.826,-0.1875,0,0,0,0,0
0.827,-0.3125,0,0,0,0,0
0.828,0.4375,0,0,0,0,0
0.829,0,0,0,0,0,0
0.83,0.125,0,0,0,0,0
0.831,0.625,0,0,0,0,0
0.832,0.6875,0,0,0,0,0
0.833,-0.3125,0,0,0,0,0
0.834,-0.25,0,0,0,0,0
0.835,-0.625,0,0,0,0,0
0.836,-0.3125,0,0,0,0,0
0.837,-0.3125,0,0,0,0,0
0.838,-0.625,0,0,0,0,0
0.839,-0.3125,0,0,0,0,0
0.84,-1.375,0,0,0,0,0
0.841,-2.1875,0,0,0,0,0
0.842,-1.75,0,0,0,0,0
0.843,-1.875,0,0,0,0,0
0.844,-2.3125,0,0,0,0,0
0.845,-2.5,0,0,0,0,0
0.846,-1.875,0,0,0,0,0
0.847,-1.25,0,0,0,0,0
0.848,-1.25,0,0,0,0,0
0.849,-0.3125,0,0,0,0,0
0.85,-0.625,0,0,0,0,0
0.851,-0.9375,0,0,0,0,0
0.852,-0.375,0,0,0,0,0
0.853,-0.3125,0,0,0,0,0
0.854,0,0,0,0,0,0
0.855,0.9375,0,0,0,0,0
0.856,0.5,0,0,0,0,0
0.857,0.625,0,0,0,0,0
0.858,0.3125,0,0,0,0,0
0.859,-0.3125,0,0,0,0,0
0.86,-0.625,0,0,0,0,0
0.861,-0.9375,0,0,0,0,0
0.862,-1.375,0,0,0,0,0
0.863,-1.875,0,0,0,0,0
0.864,-1.6875,0,0,0,0,0
0.865,-1.5625,0,0,0,0,0
0.866,-2.125,0,0,0,0,0
0.867,-1.5625,0,0,0,0,0
0.868,-1.25,0,0,0,0,0
0.869,-0.9375,0,0,0,0,0
0.87,-0.8125,0,0,0,0,0
0.871,-0.3125,0,0,0,0,0
0.872,0.625,0,0,0,0,0
0.873,1.25,0,0,0,0,0
0.874,1.5,0,0,0,0,0
0.875,1.25,0,0,0,0,0
0.876,1.75,0,0,0,0,0
0.877,1.5625,0,0,0,0,0
0.878,2,0,0,0,0,0
0.879,0.9375,0,0,0,0,0
0.88,0.9375,0,0,0,0,0
0.881,1.25,0,0,0,0,0
0.882,0.9375,0,0,0,0,0
0.883,0.9375,0,0,0,0,0
0.884,0.9375,0,0,0,0,0
0.885,0,0,0,0,0,0
0.886,-0.3125,0,0,0,0,0
0.887,-1.25,0,0,0,0,0
0.888,-2.5,0,0,0,0,0
0.889,-3.4375,0,0,0,0,0
0.89,-4,0,0,0,0,0
0.891,-4.6875,0,0,0,0,0
0.892,-4.0625,0,0,0,0,0
0.893,-3.125,0,0,0,0,0
0.894,-2.375,0,0,0,0,0
0.895,-2.5,0,0,0,0,0
0.896,-1.875,0,0,0,0,0
0.897,-1.875,0,0,0,0,0
0.898,-0.8125,0,0,0,0,0
0.899,-0.625,0,0,0,0,0
0.9,-0.75,0,0,0,0,0
0.901,-0.3125,0,0,0,0,0
0.902,0.3125,0,0,0,0,0
0.903,-0.3125,0,0,0,0,0
0.904,-0.3125,0,0,0,0,0
0.905,0.625,0,0,0,0,0
0.906,0,0,0,0,0,0
0.907,0.3125,0,0,0,0,0
0.908,0.5,0,0,0,0,0
0.909,0.625,0,0,0,0,0
0.91,0.3125,0,0,0,0,0
0.911,-0.625,0,0,0,0,0
0.912,-0.5625,0,0,0,0,0
0.913,-0.3125,0,0,0,0,0
0.914,-0.5,0,0,0,0,0
0.915,0.3125,0,0,0,0,0
0.916,-0.9375,0,0,0,0,0
0.917,-0.625,0,0,0,0,0
0.918,-0.125,0,0,0,0,0
0.919,-0.3125,0,0,0,0,0
0.92,-0.875,0,0,0,0,0
0.921,-1.5625,0,0,0,0,0
0.922,-1.375,0,0,0,0,0
0.923,-1.25,0,0,0,0,0
0.924,-1.4375,0,0,0,0,0
0.925,-0.9375,0,0,0,0,0
0.926,-0.4375,0,0,0,0,0
0.927,-0.3125,0,0,0,0,0
0.928,0.125,0,0,0,0,0
0.929,0,0,0,0,0,0
0.93,0.3125,0,0,0,0,0
0.931,-0.3125,0,0,0,0,0
0.932,-0.125,0,0,0,0,0
0.933,0,0,0,0,0,0
0.934,-0.625,0,0,0,0,0
0.935,-0.625,0,0,0,0,0
0.936,-0.6875,0,0,0,0,0
0.937,-0.625,0,0,0,0,0
0.938,0.9375,0,0,0,0,0
0.939,1.25,0,0,0,0,0
0.94,1.5625,0,0,0,0,0
0.941,0.9375,0,0,0,0,0
0.942,1.75,0,0,0,0,0
0.943,2.1875,0,0,0,0,0
0.944,0.9375,0,0,0,0,0
0.945,0,0,0,0,0,0
0.946,-1.125,0,0,0,0,0
0.947,-0.3125,0,0,0,0,0
0.948,0.75,0,0,0,0,0
0.949,1.25,0,0,0,0,0
0.95,0.4375,0,0,0,0,0
0.951,1.25,0,0,0,0,0
0.952,1.6875,0,0,0,0,0
0.953,2.1875,0,0,0,0,0
0.954,2.375,0,0,0,0,0
0.955,2.1875,0,0,0,0,0
0.956,1.3125,0,0,0,0,0
0.957,0,0,0,0,0,0
0.958,0.75,0,0,0,0,0
0.959,0.9375,0,0,0,0,0
0.96,0.625,0,0,0,0,0
0.961,0.625,0,0,0,0,0
0.962,-0.5,0,0,0,0,0
0.963,-0.625,0,0,0,0,0
0.964,-0.5,0,0,0,0,0
0.965,-0.9375,0,0,0,0,0
0.966,-0.9375,0,0,0,0,0
0.967,-1.25,0,0,0,0,0
0.968,-1.875,0,0,0,0,0
0.969,-2.5,0,0,0,0,0
0.97,-2.5,0,0,0,0,0
0.971,-2.5,0,0,0,0,0
0.972,-2.5,0,0,0,0,0
0.973,-2.5,0,0,0,0,0
0.974,-1.3125,0,0,0,0,0
0.975,-1.25,0,0,0,0,0
0.976,-1.25,0,0,0,0,0
0.977,-1.5625,0,0,0,0,0
0.978,-2.125,0,0,0,0,0
0.979,-2.5,0,0,0,0,0
0.98,-1,0,0,0,0,0
0.981,-0.9375,0,0,0,0,0
0.982,-1.4375,0,0,0,0,0
0.983,-1.25,0,0,0,0,0
0.984,-1.5625,0,0,0,0,0
0.985,-2.1875,0,0,0,0,0
0.986,-2.375,0,0,0,0,0
0.987,-2.8125,0,0,0,0,0
0.988,-2.8125,0,0,0,0,0
0.989,-2.5,0,0,0,0,0
0.99,-2.5,0,0,0,0,0
0.991,-2.1875,0,0,0,0,0
0.992,-1.0625,0,0,0,0,0
0.993,-0.625,0,0,0,0,0
0.994,-1.5625,0,0,0,0,0
0.995,-1.875,0,0,0,0,0
0.996,-2.5,0,0,0,0,0
0.997,-2.8125,0,0,0,0,0
0.998,-3.3125,0,0,0,0,0
0.999,-3.125,0,0,0,0,0
1,-3.3125,0,0,0,0,0
1.001,-2.8125,0,0,0,0,0
1.002,-2.5625,0,0,0,0,0
1.003,-2.5,0,0,0,0,0
1.004,-2.3125,0,0,0,0,0
1.005,-2.5,0,0,0,0,0
1.006,-2.6875,0,0,0,0,0
1.007,-2.1875,0,0,0,0,0
1.008,-2.1875,0,0,0,0,0
1.009,-2.8125,0,0,0,0,0
1.01,-3.5625,0,0,0,0,0
1.011,-3.125,0,0,0,0,0
1.012,-2.8125,0,0,0,0,0
1.013,-2.1875,0,0,0,0,0
1.014,-2.5,0,0,0,0,0
1.015,-2.8125,0,0,0,0,0
1.016,-2.9375,0,0,0,0,0
1.017,-3.4375,0,0,0,0,0
1.018,-4.0625,0,0,0,0,0
1.019,-2.8125,0,0,0,0,0
1.02,-2.6875,0,0,0,0,0
1.021,-2.8125,0,0,0,0,0
1.022,-2.3125,0,0,0,0,0
1.023,-2.5,0,0,0,0,0
1.024,-2.0625,0,0,0,0,0
1.025,-1.25,0,0,0,0,0
1.026,-1.5,0,0,0,0,0
1.027,-1.875,0,0,0,0,0
1.028,-1.125,0,0,0,0,0
1.029,-0.9375,0,0,0,0,0
1.03,-0.625,0,0,0,0,0
1.031,-0.625,0,0,0,0,0
1.032,-1.6875,0,0,0,0,0
1.033,-1.875,0,0,0,0,0
1.034,-1.5625,0,0,0,0,0
1.035,-1.25,0,0,0,0,0
1.036,-0.625,0,0,0,0,0
1.037,-0.3125,0,0,0,0,0
1.038,-0.75,0,0,0,0,0
1.039,-1.25,0,0,0,0,0
1.04,-1.25,0,0,0,0,0
1.041,-1.25,0,0,0,0,0
1.042,-0.625,0,0,0,0,0
1.043,0.3125,0,0,0,0,0
1.044,0.3125,0,0,0,0,0
1.045,0,0,0,0,0,0
1.046,-0.4375,0,0,0,0,0
1.047,-0.625,0,0,0,0,0
1.048,-0.5,0,0,0,0,0
1.049,0,0,0,0,0,0
1.05,0.625,0,0,0,0,0
1.051,1.5625,0,0,0,0,0
1.052,1.875,0,0,0,0,0
1.053,2.1875,0,0,0,0,0
1.054,-0.1875,0,0,0,0,0
1.055,-1.5625,0,0,0,0,0
1.056,-1.75,0,0,0,0,0
1.057,-1.5625,0,0,0,0,0
1.058,-1.5625,0,0,0,0,0
1.059,-1.875,0,0,0,0,0
1.06,-1.25,0,0,0,0,0
1.061,0,0,0,0,0,0
1.062,-1.375,0,0,0,0,0
1.063,-1.5625,0,0,0,0,0
1.064,-1.8125,0,0,0,0,0
1.065,-1.875,0,0,0,0,0
1.066,-0.9375,0,0,0,0,0
1.067,-0.9375,0,0,0,0,0
1.068,-1,0,0,0,0,0
1.069,-0.625,0,0,0,0,0
1.07,0.125,0,0,0,0,0
1.071,0.625,0,0,0,0,0
1.072,0.125,0,0,0,0,0
1.073,-0.625,0,0,0,0,0
1.074,-0.3125,0,0,0,0,0
1.075,-1.5625,0,0,0,0,0
1.076,-0.625,0,0,0,0,0
1.077,-0.9375,0,0,0,0,0
1.078,-1.375,0,0,0,0,0
1.079,-2.1875,0,0,0,0,0
1.08,-1.4375,0,0,0,0,0
1.081,-0.9375,0,0,0,0,0
1.082,-0.375,0,0,0,0,0
1.083,0,0,0,0,0,0
1.084,0.1875,0,0,0,0,0
1.085,0.3125,0,0,0,0,0
1.086,-0.1875,0,0,0,0,0
1.087,0.3125,0,0,0,0,0
1.088,0.4375,0,0,0,0,0
1.089,0.625,0,0,0,0,0
1.09,1.25,0,0,0,0,0
1.091,1.5625,0,0,0,0,0
1.092,1.5625,0,0,0,0,0
1.093,0.9375,0,0,0,0,0
1.094,0.125,0,0,0,0,0
1.095,0,0,0,0,0,0
1.096,0.625,0,0,0,0,0
1.097,0.9375,0,0,0,0,0
1.098,0.8125,0,0,0,0,0
1.099,1.25,0,0,0,0,0
1.1,1.0625,0,0,0,0,0
1.101,-0.3125,0,0,0,0,0
1.102,-0.1875,0,0,0,0,0
1.103,-0.3125,0,0,0,0,0
1.104,0.3125,0,0,0,0,0
1.105,-0.3125,0,0,0,0,0
1.106,-0.8125,0,0,0,0,0
1.107,-1.875,0,0,0,0,0
1.108,-2.1875,0,0,0,0,0
1.109,-1.875,0,0,0,0,0
1.11,-1.375,0,0,0,0,0
1.111,-0.625,0,0,0,0,0
1.112,-1.125,0,0,0,0,0
1.113,-0.625,0,0,0,0,0
1.114,-0.625,0,0,0,0,0
1.115,-0.3125,0,0,0,0,0
1.116,-0.3125,0,0,0,0,0
1.117,-0.3125,0,0,0,0,0
1.118,-0.9375,0,0,0,0,0
1.119,-1.5625,0,0,0,0,0
1.12,-1.75,1,0,0,0,0
1.121,-1.875,0,0,0,0,0
1.122,-1.875,0,0,0,0,0
1.123,-1.5625,0,0,0,0,0
1.124,-0.75,0,0,0,0,0
1.125,-1.875,0,0,0,0,0
1.126,-2.375,0,0,0,0,0
1.127,-3.4375,0,0,0,0,0
1.128,-3.625,0,0,0,0,0
1.129,-3.75,0,0,0,0,0
1.13,-4.875,0,0,0,0,0
1.131,-4.6875,0,0,0,0,0
1.132,-5.625,0,0,0,0,0
1.133,-6.5625,0,0,0,0,0
1.134,-8,0,0,0,0,0
1.135,-8.75,0,0,0,0,0
1.136,-8.125,0,0,0,0,0
1.137,-7.5,0,0,0,0,0
1.138,-8.4375,0,0,0,0,0
1.139,-9.0625,0,0,0,0,0
1.14,-10.75,0,0,0,0,0
1.141,-12.5,0,0,0,0,0
1.142,-14.375,0,0,0,0,0
1.143,-16.875,0,0,0,0,0
1.144,-18.875,0,0,0,0,0
1.145,-21.25,0,0,0,0,0
1.146,-23.75,0,0,0,0,0
1.147,-25.313,0,0,0,0,0
1.148,-26.125,0,0,0,0,0
1.149,-27.5,0,0,0,0,0
1.15,-28.75,0,0,0,0,0
1.151,-29.688,0,0,0,0,0
1.152,-29.25,0,0,0,0,0
1.153,-30,0,0,0,0,0
1.154,-29.688,0,0,0,0,0
1.155,-28.438,0,0,0,0,0
1.156,-27.188,0,0,0,0,0
1.157,-24.688,0,0,0,0,0
1.158,-22.5,0,0,0,0,0
1.159,-19.688,0,0,0,0,0
1.16,-16.25,0,0,0,0,0
1.161,-12.5,0,0,0,0,0
1.162,-8.9375,0,0,0,0,0
1.163,-3.75,0,0,0,0,0
1.164,-0.9375,0,0,0,0,0
1.165,1.875,0,0,0,0,0
1.166,5.1875,0,0,0,0,0
1.167,8.75,0,0,0,0,0
1.168,12.625,0,0,0,0,0
1.169,16.25,0,0,0,0,0
1.17,19.375,0,0,0,0,0
1.171,23.125,0,0,0,0,0
1.172,26.125,0,0,0,0,0
1.173,29.375,0,0,0,0,0
1.174,33.563,0,0,0,0,0
1.175,37.5,0,0,0,0,0
1.176,40.5,0,0,0,0,0
1.177,43.125,0,1,0,0,0
1.178,43,0,0,0,0,0
1.179,43.125,0,0,0,0,0
1.18,44.438,0,0,0,0,0
1.181,44.063,0,0,0,0,0
1.182,43.625,0,0,0,0,0
1.183,42.188,0,0,0,0,0
1.184,40.625,0,0,0,0,0
1.185,39.063,0,0,0,0,0
1.186,36.063,0,0,0,0,0
1.187,33.438,0,0,0,0,0
1.188,32,0,0,0,0,0
1.189,31.25,0,0,0,0,0
1.19,30.75,0,0,0,0,0
1.191,29.688,0,0,0,0,0
1.192,28,0,0,0,0,0
1.193,26.25,0,0,0,0,0
1.194,25.313,0,0,0,0,0
1.195,24.375,0,0,0,0,0
1.196,23.563,0,0,0,0,0
1.197,23.438,0,0,0,0,0
1.198,22.063,0,0,0,0,0
1.199,20.625,0,0,0,0,0
1.2,19.813,0,0,0,0,0
1.201,19.063,0,0,0,0,0
1.202,19.375,0,0,0,0,0
1.203,18.75,0,0,0,0,0
1.204,17.25,0,0,0,0,0
1.205,16.563,0,0,0,0,0
1.206,16.563,0,0,0,0,0
1.207,15.938,0,0,0,0,0
1.208,15.813,0,0,0,0,0
1.209,15.938,0,0,0,0,0
1.21,15.938,0,0,0,0,0
1.211,16.25,0,0,0,0,0
1.212,15.938,0,0,0,0,0
1.213,15.625,0,0,0,0,0
1.214,14.375,0,0,0,0,0
1.215,13.75,0,0,0,0,0
1.216,13.75,0,0,0,0,0
1.217,13.438,0,0,0,0,0
1.218,12.188,0,0,0,0,0
1.219,11.563,0,0,0,0,0
1.22,12,0,0,0,0,0
1.221,11.25,0,0,0,0,0
1.222,10.938,0,0,0,0,0
1.223,10.938,0,0,0,0,0
1.224,10.375,0,0,0,0,0
1.225,10.625,0,0,0,0,0
1.226,10.313,0,0,0,0,0
1.227,10,0,0,0,0,0
1.228,10.563,0,0,0,0,0
1.229,10.625,0,0,0,0,0
1.23,10.625,0,0,0,0,0
1.231,10.313,0,0,0,0,0
1.232,10.438,0,0,0,0,0
1.233,10,0,0,0,0,0
1.234,9.5625,0,0,0,0,0
1.235,9.6875,0,0,0,0,0
1.236,10.438,0,0,0,0,0
1.237,10.938,0,0,0,0,0
1.238,10.75,0,0,0,0,0
1.239,10.938,0,0,0,0,0
1.24,10.625,0,0,0,0,0
1.241,10.313,0,0,0,0,0
1.242,10.5,0,0,0,0,0
1.243,10.938,0,0,0,0,0
1.244,11.125,0,0,0,0,0
1.245,11.25,0,0,0,0,0
1.246,11.5,0,0,0,0,0
1.247,12.813,0,0,0,0,0
1.248,12.375,0,0,0,0,0
1.249,11.563,0,0,0,0,0
1.25,10.938,0,0,0,0,0
1.251,10.313,0,0,0,0,0
1.252,10.75,0,0,0,0,0
1.253,10.938,0,0,0,0,0
1.254,11.813,0,0,0,0,0
1.255,11.563,0,0,0,0,0
1.256,9.5625,0,0,0,0,0
1.257,7.8125,0,0,0,0,0
1.258,6.5625,0,0,0,0,0
1.259,5.625,0,0,0,0,0
1.26,5.3125,0,0,0,0,0
1.261,5,0,0,0,0,0
1.262,5.8125,0,0,0,0,0
1.263,5.625,0,0,0,0,0
1.264,5.3125,0,0,0,0,0
1.265,4.6875,0,0,0,0,0
1.266,4.375,0,0,0,0,0
1.267,4.0625,0,0,0,0,0
1.268,3.5,0,0,0,0,0
1.269,2.1875,0,0,0,0,0
1.27,1.125,0,0,0,0,0
1.271,0,0,0,0,0,0
1.272,0.5625,0,0,0,0,0
1.273,0.9375,0,0,0,0,0
1.274,1.6875,0,0,0,0,0
1.275,2.1875,0,0,0,0,0
1.276,1.4375,0,0,1,0,0
1.277,0.625,0,0,0,0,0
1.278,0.3125,0,0,0,0,0
1.279,-0.3125,0,0,0,0,0
1.28,-0.8125,0,0,0,0,0
1.281,-0.3125,0,0,0,0,0
1.282,-0.4375,0,0,0,0,0
1.283,-0.3125,0,0,0,0,0
1.284,-1.0625,0,0,0,0,0
1.285,-0.625,0,0,0,0,0
1.286,-0.625,0,0,0,0,0
1.287,-0.3125,0,0,0,0,0
1.288,0.1875,0,0,0,0,0
1.289,-0.3125,0,0,0,0,0
1.29,-0.75,0,0,0,0,0
1.291,0.3125,0,0,0,0,0
1.292,0.1875,0,0,0,0,0
1.293,-0.3125,0,0,0,0,0
1.294,0.125,0,0,0,0,0
1.295,0,0,0,0,0,0
1.296,0.125,0,0,0,0,0
1.297,0,0,0,0,0,0
1.298,-0.8125,0,0,0,0,0
1.299,-0.625,0,0,0,0,0
1.3,-1.125,0,0,0,0,0
1.301,-1.5625,0,0,0,0,0
1.302,-1.125,0,0,0,0,0
1.303,-1.25,0,0,0,0,0
1.304,-0.3125,0,0,0,0,0
1.305,0.3125,0,0,0,0,0
1.306,-0.625,0,0,0,0,0
1.307,-0.625,0,0,0,0,0
1.308,-1.0625,0,0,0,0,0
1.309,-1.875,0,0,0,0,0
1.31,-1.5625,0,0,0,0,0
1.311,-0.625,0,0,0,0,0
1.312,-0.5,0,0,0,0,0
1.313,-0.3125,0,0,0,0,0
1.314,-1.25,0,0,0,0,0
1.315,-0.9375,0,0,0,0,0
1.316,-0.9375,0,0,0,0,0
1.317,-0.625,0,0,0,0,0
1.318,-0.5,0,0,0,0,0
1.319,-0.3125,0,0,0,0,0
1.32,0.125,0,0,0,0,0
1.321,0,0,0,0,0,0
1.322,0.3125,0,0,0,0,0
1.323,0.3125,0,0,0,0,0
1.324,0,0,0,0,0,0
1.325,-0.3125,0,0,0,0,0
1.326,-0.875,0,0,0,0,0
1.327,-0.625,0,0,0,0,0
1.328,-0.875,0,0,0,0,0
1.329,-2.1875,0,0,0,0,0
1.33,-2.375,0,0,0,0,0
1.331,-3.125,0,0,0,0,0
1.332,-2.5,0,0,0,0,0
1.333,-1.25,0,0,0,0,0
1.334,-2.0625,0,0,0,0,0
1.335,-1.5625,0,0,0,0,0
1.336,-1.6875,0,0,0,0,0
1.337,-2.1875,0,0,0,0,0
1.338,-1.9375,0,0,0,0,0
1.339,-2.1875,0,0,0,0,0
1.34,-1.5625,0,0,0,0,0
1.341,-1.875,0,0,0,0,0
1.342,-1.875,0,0,0,0,0
1.343,-2.1875,0,0,0,0,0
1.344,-2.3125,0,0,0,0,0
1.345,-2.1875,0,0,0,0,0
1.346,-2.0625,0,0,0,0,0
1.347,-1.25,0,0,0,0,0
1.348,-2,0,0,0,0,0
1.349,-2.1875,0,0,0,0,0
1.35,-2.1875,0,0,0,0,0
1.351,-2.5,0,0,0,0,0
1.352,-2.3125,0,0,0,0,0
1.353,-2.8125,0,0,0,0,0
1.354,-2.0625,0,0,0,0,0
1.355,-1.5625,0,0,0,0,0
1.356,-1.375,0,0,0,0,0
1.357,-1.25,0,0,0,0,0
1.358,-1.375,0,0,0,0,0
1.359,-1.875,0,0,0,0,0
1.36,-1.75,0,0,0,0,0
1.361,-1.5625,0,0,0,0,0
1.362,-1.125,0,0,0,0,0
1.363,-0.3125,0,0,0,0,0
1.364,-0.875,0,0,0,0,0
1.365,-0.9375,0,0,0,0,0
1.366,-1.875,0,0,0,0,0
1.367,-3.75,0,0,0,0,0
1.368,-4.5,0,0,0,0,0
1.369,-4.0625,0,0,0,0,0
1.37,-4.0625,0,0,0,0,0
1.371,-3.125,0,0,0,0,0
1.372,-3.4375,0,0,0,0,0
1.373,-3.125,0,0,0,0,0
1.374,-3.25,0,0,0,0,0
1.375,-3.4375,0,0,0,0,0
1.376,-4.6875,0,0,0,0,0
1.377,-5,0,0,0,0,0
1.378,-5.8125,0,0,0,0,0
1.379,-5.3125,0,0,0,0,0
1.38,-4.5625,0,0,0,0,0
1.381,-3.4375,0,0,0,0,0
1.382,-3.75,0,0,0,0,0
1.383,-4.0625,0,0,0,0,0
1.384,-4.5625,0,0,0,0,0
1.385,-4.0625,0,0,0,0,0
1.386,-3.4375,0,0,0,0,0
1.387,-3.4375,0,0,0,0,0
1.388,-3.625,0,0,0,0,0
1.389,-3.4375,0,0,0,0,0
1.39,-3.6875,0,0,0,0,0
1.391,-4.375,0,0,0,0,0
1.392,-4.25,0,0,0,0,0
1.393,-4.375,0,0,0,0,0
1.394,-4.875,0,0,0,0,0
1.395,-5.625,0,0,0,0,0
1.396,-5.4375,0,0,0,0,0
1.397,-5.3125,0,0,0,0,0
1.398,-5.3125,0,0,0,0,0
1.399,-5.3125,0,0,0,0,0
1.4,-4.875,0,0,0,0,0
1.401,-4.375,0,0,0,0,0
1.402,-4.6875,0,0,0,0,0
1.403,-4.6875,0,0,0,0,0
1.404,-5.3125,0,0,0,0,0
1.405,-6.5625,0,0,0,0,0
1.406,-6.75,0,0,0,0,0
1.407,-6.875,0,0,0,0,0
1.408,-5.9375,0,0,0,0,0
1.409,-6.875,0,0,0,0,0
1.41,-6.5625,0,0,0,0,0
1.411,-6.875,0,0,0,0,0
1.412,-6.6875,0,0,0,0,0
1.413,-6.5625,0,0,0,0,0
1.414,-5.125,0,0,0,0,0
1.415,-5.625,0,0,0,0,0
1.416,-5,0,0,0,0,0
1.417,-5.3125,0,0,0,0,0
1.418,-6.0625,0,0,0,0,0
1.419,-5.625,0,0,0,0,0
1.42,-5.625,0,0,0,0,0
1.421,-5.625,0,0,0,0,0
1.422,-5.625,0,0,0,0,0
1.423,-5.625,0,0,0,0,0
1.424,-5.5,0,0,0,0,0
1.425,-5.625,0,0,0,0,0
1.426,-5.625,0,0,0,0,0
1.427,-5.625,0,0,0,0,0
1.428,-5.9375,0,0,0,0,0
1.429,-6.25,0,0,0,0,0
1.43,-6.6875,0,0,0,0,0
1.431,-7.5,0,0,0,0,0
1.432,-8.0625,0,0,0,0,0
1.433,-8.4375,0,0,0,0,0
1.434,-7.9375,0,0,0,0,0
1.435,-8.4375,0,0,0,0,0
1.436,-7.6875,0,0,0,0,0
1.437,-6.875,0,0,0,0,0
1.438,-6.4375,0,0,0,0,0
1.439,-6.5625,0,0,0,0,0
1.44,-7.0625,0,0,0,0,0
1.441,-7.1875,0,0,0,0,0
1.442,-7.625,0,0,0,0,0
1.443,-7.5,0,0,0,0,0
1.444,-7.8125,0,0,0,0,0
1.445,-7.5,0,0,0,0,0
1.446,-7.1875,0,0,0,0,0
1.447,-7.8125,0,0,0,0,0
1.448,-8.3125,0,0,0,0,0
1.449,-7.8125,0,0,0,0,0
1.45,-6.75,0,0,0,0,0
1.451,-5.9375,0,0,0,0,0
1.452,-7.75,0,0,0,0,0
1.453,-8.75,0,0,0,0,0
1.454,-9.1875,0,0,0,0,0
1.455,-9.0625,0,0,0,0,0
1.456,-7.8125,0,0,0,0,0
1.457,-7.1875,0,0,0,0,0
1.458,-8.25,0,0,0,0,0
1.459,-9.375,0,0,0,0,0
1.46,-10.313,0,0,0,0,0
1.461,-10.625,0,0,0,1,0
1.462,-9.5,0,0,0,0,0
1.463,-8.125,0,0,0,0,0
1.464,-8.3125,0,0,0,0,0
1.465,-7.5,0,0,0,0,0
1.466,-7.625,0,0,0,0,0
1.467,-7.5,0,0,0,0,0
1.468,-7.1875,0,0,0,0,0
1.469,-7.1875,0,0,0,0,0
1.47,-7.5,0,0,0,0,0
1.471,-7.5,0,0,0,0,0
1.472,-6.3125,0,0,0,0,0
1.473,-5.9375,0,0,0,0,0
1.474,-6.375,0,0,0,0,0
1.475,-7.1875,0,0,0,0,0
1.476,-7.0625,0,0,0,0,0
1.477,-6.25,0,0,0,0,0
1.478,-6.5625,0,0,0,0,0
1.479,-6.25,0,0,0,0,0
1.48,-5.75,0,0,0,0,0
1.481,-5.3125,0,0,0,0,0
1.482,-5.3125,0,0,0,0,0
1.483,-5.3125,0,0,0,0,0
1.484,-4.5,0,0,0,0,0
1.485,-5.3125,0,0,0,0,0
1.486,-4.875,0,0,0,0,0
1.487,-4.6875,0,0,0,0,0
1.488,-4.8125,0,0,0,0,0
1.489,-5,0,0,0,0,0
1.49,-3.875,0,0,0,0,0
1.491,-4.375,0,0,0,0,0
1.492,-4.0625,0,0,0,0,0
1.493,-3.4375,0,0,0,0,0
1.494,-3.125,0,0,0,0,0
1.495,-3.4375,0,0,0,0,0
1.496,-3,0,0,0,0,0
1.497,-3.4375,0,0,0,0,0
1.498,-3.625,0,0,0,0,0
1.499,-3.125,0,0,0,0,0
1.5,-3.125,0,0,0,0,0
1.501,-3.125,0,0,0,0,0
1.502,-2.8125,0,0,0,0,0
1.503,-2.8125,0,0,0,0,0
1.504,-1.75,0,0,0,0,0
1.505,-1.25,0,0,0,0,0
1.506,-0.125,0,0,0,0,1
1.507,-1.25,0,0,0,0,0
1.508,-1.25,0,0,0,0,0
1.509,-0.9375,0,0,0,0,0
1.51,-0.9375,0,0,0,0,0
1.511,-0.3125,0,0,0,0,0
1.512,0.75,0,0,0,0,0
1.513,0.9375,0,0,0,0,0
1.514,1,0,0,0,0,0
1.515,0.9375,0,0,0,0,0
1.516,0.1875,0,0,0,0,0
1.517,0,0,0,0,0,0
1.518,-0.125,0,0,0,0,0
1.519,0.3125,0,0,0,0,0
1.52,-0.4375,0,0,0,0,0
1.521,-0.3125,0,0,0,0,0
1.522,-0.1875,0,0,0,0,0
1.523,-0.625,0,0,0,0,0
1.524,0,0,0,0,0,0
1.525,0.3125,0,0,0,0,0
1.526,0.9375,0,0,0,0,0
1.527,1.25,0,0,0,0,0
1.528,2.5,0,0,0,0,0
1.529,2.1875,0,0,0,0,0
1.53,2,0,0,0,0,0
1.531,2.1875,0,0,0,0,0
1.532,0,0,0,0,0,0
1.533,-1.25,0,0,0,0,0
1.534,-1.875,0,0,0,0,0
1.535,-1.5625,0,0,0,0,0
1.536,-1.25,0,0,0,0,0
1.537,-1.25,0,0,0,0,0
1.538,-0.1875,0,0,0,0,0
1.539,0,0,0,0,0,0
1.54,-0.125,0,0,0,0,0
1.541,-0.625,0,0,0,0,0
1.542,-0.625,0,0,0,0,0
1.543,-0.625,0,0,0,0,0
1.544,-1.4375,0,0,0,0,0
1.545,-1.5625,0,0,0,0,0
1.546,-0.8125,0,0,0,0,0
1.547,-0.3125,0,0,0,0,0
1.548,-0.3125,0,0,0,0,0
1.549,-0.625,0,0,0,0,0
1.55,-0.625,0,0,0,0,0
1.551,-0.9375,0,0,0,0,0
1.552,-1.0625,0,0,0,0,0
1.553,-0.3125,0,0,0,0,0
1.554,0.125,0,0,0,0,0
1.555,1.25,0,0,0,0,0
1.556,0.9375,0,0,0,0,0
1.557,0.625,0,0,0,0,0
1.558,0.1875,0,0,0,0,0
1.559,0,0,0,0,0,0
1.56,-0.4375,0,0,0,0,0
1.561,-0.9375,0,0,0,0,0
1.562,-0.75,0,0,0,0,0
1.563,0,0,0,0,0,0
1.564,1.125,0,0,0,0,0
1.565,1.875,0,0,0,0,0
1.566,2.1875,0,0,0,0,0
1.567,2.5,0,0,0,0,0
1.568,2.625,0,0,0,0,0
1.569,2.8125,0,0,0,0,0
1.57,1.5625,0,0,0,0,0
1.571,1.25,0,0,0,0,0
1.572,1.875,0,0,0,0,0
1.573,1.25,0,0,0,0,0
1.574,0.9375,0,0,0,0,0
1.575,0.9375,0,0,0,0,0
1.576,0.625,0,0,0,0,0
1.577,1.25,0,0,0,0,0
1.578,0.1875,0,0,0,0,0
1.579,0.3125,0,0,0,0,0
1.58,0.5625,0,0,0,0,0
1.581,0.9375,0,0,0,0,0
1.582,1.125,0,0,0,0,0
1.583,0.625,0,0,0,0,0
1.584,-0.125,0,0,0,0,0
1.585,0.3125,0,0,0,0,0
1.586,0.75,0,0,0,0,0
1.587,0.3125,0,0,0,0,0
1.588,0.1875,0,0,0,0,0
1.589,0,0,0,0,0,0
1.59,-0.125,0,0,0,0,0
1.591,0,0,0,0,0,0
1.592,-1.0625,0,0,0,0,0
1.593,-0.625,0,0,0,0,0
1.594,-0.1875,0,0,0,0,0
1.595,0.625,0,0,0,0,0
1.596,1.125,0,0,0,0,0
1.597,0.9375,0,0,0,0,0
1.598,0.8125,0,0,0,0,0
1.599,0.9375,0,0,0,0,0
1.6,1.0625,0,0,0,0,0
1.601,1.875,0,0,0,0,0
1.602,1.25,0,0,0,0,0
1.603,1.25,0,0,0,0,0
1.604,2.0625,0,0,0,0,0
1.605,1.5625,0,0,0,0,0
1.606,-0.25,0,0,0,0,0
1.607,-0.625,0,0,0,0,0
1.608,-1.875,0,0,0,0,0
1.609,-2.8125,0,0,0,0,0
1.61,-2.6875,0,0,0,0,0
1.611,-1.5625,0,0,0,0,0
1.612,-1.125,0,0,0,0,0
1.613,-0.3125,0,0,0,0,0
1.614,0.125,0,0,0,0,0
1.615,0.625,0,0,0,0,0
1.616,-0.3125,0,0,0,0,0
1.617,0.625,0,0,0,0,0
1.618,0.0625,0,0,0,0,0
1.619,-0.625,0,0,0,0,0
1.62,-1.8125,0,0,0,0,0
1.621,-2.8125,0,0,0,0,0
1.622,-3.75,0,0,0,0,0
1.623,-3.75,0,0,0,0,0
1.624,-3.3125,0,0,0,0,0
1.625,-2.8125,0,0,0,0,0
1.626,-2.375,0,0,0,0,0
1.627,-2.1875,0,0,0,0,0
1.628,-2.0625,0,0,0,0,0
1.629,-1.875,0,0,0,0,0
1.63,-1.5625,0,0,0,0,0
1.631,-1.25,0,0,0,0,0
1.632,-2.375,0,0,0,0,0
1.633,-3.125,0,0,0,0,0
1.634,-2.5625,0,0,0,0,0
1.635,-1.875,0,0,0,0,0
1.636,-1.3125,0,0,0,0,0
1.637,-1.5625,0,0,0,0,0
1.638,-1.5625,0,0,0,0,0
1.639,-1.875,0,0,0,0,0
1.64,-1.875,0,0,0,0,0
1.641,-1.875,0,0,0,0,0
1.642,-2.375,0,0,0,0,0
1.643,-2.1875,0,0,0,0,0
1.644,-1.5625,0,0,0,0,0
1.645,-1.875,0,0,0,0,0
1.646,-1.25,0,0,0,0,0
1.647,-0.9375,0,0,0,0,0
1.648,-1.375,0,0,0,0,0
1.649,-1.5625,0,0,0,0,0
1.65,-1.375,0,0,0,0,0
1.651,-1.25,0,0,0,0,0
1.652,-1.25,0,0,0,0,0
1.653,-1.25,0,0,0,0,0
1.654,-1.25,0,0,0,0,0
1.655,-1.5625,0,0,0,0,0
1.656,-0.9375,0,0,0,0,0
1.657,-1.25,0,0,0,0,0
1.658,-0.9375,0,0,0,0,0
1.659,-0.9375,0,0,0,0,0
1.66,-0.8125,0,0,0,0,0
1.661,-0.3125,0,0,0,0,0
1.662,-0.4375,0,0,0,0,0
1.663,-0.625,0,0,0,0,0
1.664,-1.25,0,0,0,0,0
1.665,-0.9375,0,0,0,0,0
1.666,-1.25,0,0,0,0,0
1.667,-0.625,0,0,0,0,0
1.668,-1.4375,0,0,0,0,0
1.669,-1.25,0,0,0,0,0
1.67,-0.9375,0,0,0,0,0
1.671,-0.9375,0,0,0,0,0
1.672,-0.3125,0,0,0,0,0
1.673,0.625,0,0,0,0,0
1.674,0.3125,0,0,0,0,0
1.675,0,0,0,0,0,0
1.676,-0.625,0,0,0,0,0
1.677,-0.9375,0,0,0,0,0
1.678,-0.625,0,0,0,0,0
1.679,0,0,0,0,0,0
1.68,-0.75,0,0,0,0,0
1.681,-1.25,0,0,0,0,0
1.682,-1.5625,0,0,0,0,0
1.683,-2.1875,0,0,0,0,0
1.684,-3,0,0,0,0,0
1.685,-2.1875,0,0,0,0,0
1.686,-1.4375,0,0,0,0,0
1.687,-0.625,0,0,0,0,0
1.688,-1.4375,0,0,0,0,0
1.689,-1.5625,0,0,0,0,0
1.69,-0.9375,0,0,0,0,0
1.691,-0.625,0,0,0,0,0
1.692,-0.8125,0,0,0,0,0
1.693,-0.3125,0,0,0,0,0
1.694,0.625,0,0,0,0,0
1.695,0,0,0,0,0,0
1.696,-0.625,0,0,0,0,0
1.697,-0.9375,0,0,0,0,0
1.698,-0.5,0,0,0,0,0
1.699,-0.3125,0,0,0,0,0
1.7,-1.4375,0,0,0,0,0
1.701,-1.5625,0,0,0,0,0
1.702,-1.375,0,0,0,0,0
1.703,-1.875,0,0,0,0,0
1.704,-1.125,0,0,0,0,0
1.705,-1.25,0,0,0,0,0
1.706,-1.25,0,0,0,0,0
1.707,-1.25,0,0,0,0,0
1.708,-1.625,0,0,0,0,0
1.709,-1.5625,0,0,0,0,0
1.71,-0.8125,0,0,0,0,0
1.711,-1.5625,0,0,0,0,0
1.712,-1.4375,0,0,0,0,0
1.713,-0.9375,0,0,0,0,0
1.714,-1.25,0,0,0,0,0
1.715,-1.25,0,0,0,0,0
1.716,-0.9375,0,0,0,0,0
1.717,-0.9375,0,0,0,0,0
1.718,0,0,0,0,0,0
1.719,0.9375,0,0,0,0,0
1.72,0.9375,0,0,0,0,0
1.721,0.3125,0,0,0,0,0
1.722,-0.25,0,0,0,0,0
1.723,-0.9375,0,0,0,0,0
1.724,-2,0,0,0,0,0
1.725,-1.5625,0,0,0,0,0
1.726,-1.875,0,0,0,0,0
1.727,-1.5625,0,0,0,0,0
1.728,-0.9375,0,0,0,0,0
1.729,-0.9375,0,0,0,0,0
1.73,-0.3125,0,0,0,0,0
1.731,-0.3125,0,0,0,0,0
1.732,-1.0625,0,0,0,0,0
1.733,-0.3125,0,0,0,0,0
1.734,-0.125,0,0,0,0,0
1.735,0,0,0,0,0,0
1.736,-1.25,0,0,0,0,0
1.737,-0.625,0,0,0,0,0
1.738,-0.3125,0,0,0,0,0
1.739,-0.625,0,0,0,0,0
1.74,-0.125,0,0,0,0,0
1.741,-1.25,0,0,0,0,0
1.742,-0.5,0,0,0,0,0
1.743,0.625,0,0,0,0,0
1.744,0.9375,0,0,0,0,0
1.745,0,0,0,0,0,0
1.746,0.625,0,0,0,0,0
1.747,0.625,0,0,0,0,0
1.748,0.9375,0,0,0,0,0
1.749,1.25,0,0,0,0,0
1.75,0.625,0,0,0,0,0
1.751,0.625,0,0,0,0,0
1.752,-0.125,0,0,0,0,0
1.753,-0.9375,0,0,0,0,0
1.754,-0.9375,0,0,0,0,0
1.755,-0.9375,0,0,0,0,0
1.756,-0.8125,0,0,0,0,0
1.757,-0.625,0,0,0,0,0
1.758,0,0,0,0,0,0
1.759,0,0,0,0,0,0
1.76,-0.4375,0,0,0,0,0
1.761,-0.3125,0,0,0,0,0
1.762,-0.625,0,0,0,0,0
1.763,-0.9375,0,0,0,0,0
1.764,-1.6875,0,0,0,0,0
1.765,-2.1875,0,0,0,0,0
1.766,-2.3125,0,0,0,0,0
1.767,-2.5,0,0,0,0,0
1.768,-2.0625,0,0,0,0,0
1.769,-1.25,0,0,0,0,0
1.77,-2.1875,0,0,0,0,0
1.771,-1.5625,0,0,0,0,0
1.772,-0.9375,0,0,0,0,0
1.773,-0.625,0,0,0,0,0
1.774,-0.75,0,0,0,0,0
1.775,-0.625,0,0,0,0,0
1.776,-1.5625,0,0,0,0,0
1.777,-2.1875,0,0,0,0,0
1.778,-2.375,0,0,0,0,0
1.779,-2.5,0,0,0,0,0
1.78,-2.8125,0,0,0,0,0
1.781,-2.8125,0,0,0,0,0
1.782,-3,0,0,0,0,0
1.783,-2.8125,0,0,0,0,0
1.784,-1.875,0,0,0,0,0
1.785,-1.25,0,0,0,0,0
1.786,-0.6875,0,0,0,0,0
1.787,0,0,0,0,0,0
1.788,-2.1875,0,0,0,0,0
1.789,-4.6875,0,0,0,0,0
1.79,-5,0,0,0,0,0
1.791,-5.9375,0,0,0,0,0
1.792,-5.4375,0,0,0,0,0
1.793,-4.6875,0,0,0,0,0
1.794,-4.0625,0,0,0,0,0
1.795,-4.6875,0,0,0,0,0
1.796,-4.8125,0,0,0,0,0
1.797,-5,0,0,0,0,0
1.798,-5,0,0,0,0,0
1.799,-4.6875,0,0,0,0,0
1.8,-4.875,0,0,0,0,0
1.801,-4.6875,0,0,0,0,0
1.802,-4.1875,0,0,0,0,0
1.803,-4.375,0,0,0,0,0
1.804,-4.375,0,0,0,0,0
1.805,-4.375,0,0,0,0,0
1.806,-3.4375,0,0,0,0,0
1.807,-3.125,0,0,0,0,0
1.808,-3,0,0,0,0,0
1.809,-3.125,0,0,0,0,0
1.81,-3.5625,0,0,0,0,0
1.811,-3.75,0,0,0,0,0
1.812,-3.75,0,0,0,0,0
1.813,-4.375,0,0,0,0,0
1.814,-3.3125,0,0,0,0,0
1.815,-3.4375,0,0,0,0,0
1.816,-4.1875,0,0,0,0,0
1.817,-4.375,0,0,0,0,0
1.818,-4.25,0,0,0,0,0
1.819,-3.75,0,0,0,0,0
1.82,-3.3125,0,0,0,0,0
1.821,-2.8125,0,0,0,0,0
1.822,-2.625,0,0,0,0,0
1.823,-2.1875,0,0,0,0,0
1.824,-2.1875,0,0,0,0,0
1.825,-1.5625,0,0,0,0,0
1.826,-1.25,0,0,0,0,0
1.827,-1.25,0,0,0,0,0
1.828,-0.1875,0,0,0,0,0
1.829,-0.3125,0,0,0,0,0
1.83,-0.625,0,0,0,0,0
1.831,-0.3125,0,0,0,0,0
1.832,-0.4375,0,0,0,0,0
1.833,-0.9375,0,0,0,0,0
1.834,-1.5625,0,0,0,0,0
1.835,-1.875,0,0,0,0,0
1.836,-1.3125,0,0,0,0,0
1.837,-0.9375,0,0,0,0,0
1.838,-0.625,0,0,0,0,0
1.839,0,0,0,0,0,0
1.84,0,0,0,0,0,0
1.841,-0.3125,0,0,0,0,0
1.842,-0.5,0,0,0,0,0
1.843,-0.9375,0,0,0,0,0
1.844,-0.3125,0,0,0,0,0
1.845,0.3125,0,0,0,0,0
1.846,0.625,0,0,0,0,0
1.847,0.9375,0,0,0,0,0
1.848,0.375,0,0,0,0,0
1.849,-0.9375,0,0,0,0,0
1.85,-0.125,0,0,0,0,0
1.851,-0.3125,0,0,0,0,0
1.852,-0.1875,0,0,0,0,0
1.853,-0.3125,0,0,0,0,0
1.854,-1.875,0,0,0,0,0
1.855,-3.4375,0,0,0,0,0
1.856,-3.5625,0,0,0,0,0
1.857,-4.0625,0,0,0,0,0
1.858,-3.125,0,0,0,0,0
1.859,-2.8125,0,0,0,0,0
1.86,-1.4375,0,0,0,0,0
1.861,-0.3125,0,0,0,0,0
1.862,-0.9375,0,0,0,0,0
1.863,-1.25,0,0,0,0,0
1.864,-0.4375,0,0,0,0,0
1.865,0.625,0,0,0,0,0
1.866,1.0625,0,0,0,0,0
1.867,1.25,0,0,0,0,0
1.868,-0.1875,0,0,0,0,0
1.869,0,0,0,0,0,0
1.87,-1.0625,0,0,0,0,0
1.871,-0.625,0,0,0,0,0
1.872,-0.625,0,0,0,0,0
1.873,-0.3125,0,0,0,0,0
1.874,-1.0625,0,0,0,0,0
1.875,-1.25,0,0,0,0,0
1.876,-0.9375,0,0,0,0,0
1.877,-0.625,0,0,0,0,0
1.878,-0.625,0,0,0,0,0
1.879,0,0,0,0,0,0
1.88,-0.8125,0,0,0,0,0
1.881,-2.1875,0,0,0,0,0
1.882,-1.875,0,0,0,0,0
1.883,-2.1875,0,0,0,0,0
1.884,-1.625,0,0,0,0,0
1.885,-1.25,0,0,0,0,0
1.886,-1.875,0,0,0,0,0
1.887,-1.25,0,0,0,0,0
1.888,-1.0625,0,0,0,0,0
1.889,-0.9375,0,0,0,0,0
1.89,0,0,0,0,0,0
1.891,0.625,0,0,0,0,0
1.892,1.25,0,0,0,0,0
1.893,1.25,0,0,0,0,0
1.894,1.25,0,0,0,0,0
1.895,1.875,0,0,0,0,0
1.896,1.5625,0,0,0,0,0
1.897,1.875,0,0,0,0,0
1.898,1.6875,0,0,0,0,0
1.899,2.1875,0,0,0,0,0
1.9,0.625,0,0,0,0,0
1.901,0.625,0,0,0,0,0
1.902,-0.5,0,0,0,0,0
1.903,-1.25,0,0,0,0,0
1.904,-0.75,0,0,0,0,0
1.905,-1.5625,0,0,0,0,0
1.906,-1,0,0,0,0,0
1.907,-1.5625,0,0,0,0,0
1.908,-2.125,0,0,0,0,0
1.909,-2.5,0,0,0,0,0
1.91,-1.9375,0,0,0,0,0
1.911,-1.5625,0,0,0,0,0
1.912,-1.25,0,0,0,0,0
1.913,-1.25,0,0,0,0,0
1.914,-1.4375,0,0,0,0,0
1.915,-1.25,0,0,0,0,0
1.916,-1.875,0,0,0,0,0
1.917,-2.5,0,0,0,0,0
1.918,-2.1875,0,0,0,0,0
1.919,-1.5625,1,0,0,0,0
1.92,-2,0,0,0,0,0
1.921,-1.5625,0,0,0,0,0
1.922,-2.625,0,0,0,0,0
1.923,-3.4375,0,0,0,0,0
1.924,-4.0625,0,0,0,0,0
1.925,-5.3125,0,0,0,0,0
1.926,-5,0,0,0,0,0
1.927,-5.625,0,0,0,0,0
1.928,-6.4375,0,0,0,0,0
1.929,-7.1875,0,0,0,0,0
1.93,-8.25,0,0,0,0,0
1.931,-9.6875,0,0,0,0,0
1.932,-11.063,0,0,0,0,0
1.933,-13.125,0,0,0,0,0
1.934,-14.5,0,0,0,0,0
1.935,-16.25,0,0,0,0,0
1.936,-16.875,0,0,0,0,0
1.937,-17.188,0,0,0,0,0
1.938,-18.625,0,0,0,0,0
1.939,-19.688,0,0,0,0,0
1.94,-20.063,0,0,0,0,0
1.941,-20.938,0,0,0,0,0
1.942,-22.625,0,0,0,0,0
1.943,-24.688,0,0,0,0,0
1.944,-27.625,0,0,0,0,0
1.945,-29.375,0,0,0,0,0
1.946,-30.313,0,0,0,0,0
1.947,-30.938,0,0,0,0,0
1.948,-32.938,0,0,0,0,0
1.949,-33.438,0,0,0,0,0
1.95,-32.938,0,0,0,0,0
1.951,-32.5,0,0,0,0,0
1.952,-30,0,0,0,0,0
1.953,-27.188,0,0,0,0,0
1.954,-23.438,0,0,0,0,0
1.955,-20.625,0,0,0,0,0
1.956,-18.125,0,0,0,0,0
1.957,-15.625,0,0,0,0,0
1.958,-11.375,0,0,0,0,0
1.959,-7.5,0,0,0,0,0
1.96,-3.125,0,0,0,0,0
1.961,0.625,0,0,0,0,0
1.962,4.25,0,0,0,0,0
1.963,8.4375,0,0,0,0,0
1.964,11.438,0,0,0,0,0
1.965,14.375,0,0,0,0,0
1.966,18.75,0,0,0,0,0
1.967,22.188,0,0,0,0,0
1.968,26.063,0,0,0,0,0
1.969,30,0,0,0,0,0
1.97,33.875,0,0,0,0,0
1.971,37.5,0,0,0,0,0
1.972,40.625,0,0,0,0,0
1.973,41.563,0,0,0,0,0
1.974,42.625,0,0,0,0,0
1.975,44.375,0,0,0,0,0
1.976,44.813,0,1,0,0,0
1.977,45.313,0,0,0,0,0
1.978,45.313,0,0,0,0,0
1.979,45,0,0,0,0,0
1.98,44.25,0,0,0,0,0
1.981,41.563,0,0,0,0,0
1.982,38.188,0,0,0,0,0
1.983,35.313,0,0,0,0,0
1.984,32.813,0,0,0,0,0
1.985,30.625,0,0,0,0,0
1.986,28.625,0,0,0,0,0
1.987,27.188,0,0,0,0,0
1.988,26.125,0,0,0,0,0
1.989,25,0,0,0,0,0
1.99,23.938,0,0,0,0,0
1.991,23.125,0,0,0,0,0
1.992,22.625,0,0,0,0,0
1.993,22.188,0,0,0,0,0
1.994,21.688,0,0,0,0,0
1.995,20.938,0,0,0,0,0
1.996,20.75,0,0,0,0,0
1.997,21.25,0,0,0,0,0
1.998,21.688,0,0,0,0,0
1.999,21.875,0,0,0,0,0
2,21.375,0,0,0,0,0
2.001,21.25,0,0,0,0,0
2.002,19.375,0,0,0,0,0
2.003,18.125,0,0,0,0,0
2.004,17.813,0,0,0,0,0
2.005,16.563,0,0,0,0,0
2.006,16.063,0,0,0,0,0
2.007,15.313,0,0,0,0,0
2.008,15.625,0,0,0,0,0
2.009,15.625,0,0,0,0,0
2.01,14.875,0,0,0,0,0
2.011,14.375,0,0,0,0,0
2.012,13.625,0,0,0,0,0
2.013,11.875,0,0,0,0,0
2.014,11.25,0,0,0,0,0
2.015,11.563,0,0,0,0,0
2.016,10.75,0,0,0,0,0
2.017,10.938,0,0,0,0,0
2.018,11.125,0,0,0,0,0
2.019,10.625,0,0,0,0,0
2.02,11.563,0,0,0,0,0
2.021,11.875,0,0,0,0,0
2.022,12.063,0,0,0,0,0
2.023,12.188,0,0,0,0,0
2.024,11.25,0,0,0,0,0
2.025,10.938,0,0,0,0,0
2.026,10.625,0,0,0,0,0
2.027,10.938,0,0,0,0,0
2.028,10.375,0,0,0,0,0
2.029,10.313,0,0,0,0,0
2.03,11.875,0,0,0,0,0
2.031,12.5,0,0,0,0,0
2.032,12.313,0,0,0,0,0
2.033,12.188,0,0,0,0,0
2.034,12,0,0,0,0,0
2.035,11.875,0,0,0,0,0
2.036,11.75,0,0,0,0,0
2.037,11.25,0,0,0,0,0
2.038,11.375,0,0,0,0,0
2.039,11.875,0,0,0,0,0
2.04,12.313,0,0,0,0,0
2.041,12.5,0,0,0,0,0
2.042,14.188,0,0,0,0,0
2.043,14.688,0,0,0,0,0
2.044,14.375,0,0,0,0,0
2.045,14.063,0,0,0,0,0
2.046,11.938,0,0,0,0,0
2.047,10.313,0,0,0,0,0
2.048,9.5625,0,0,0,0,0
2.049,9.0625,0,0,0,0,0
2.05,7.6875,0,0,0,0,0
2.051,6.25,0,0,0,0,0
2.052,6.0625,0,0,0,0,0
2.053,6.25,0,0,0,0,0
2.054,5.8125,0,0,0,0,0
2.055,5.3125,0,0,0,0,0
2.056,5.25,0,0,0,0,0
2.057,5.9375,0,0,0,0,0
2.058,4.375,0,0,0,0,0
2.059,2.8125,0,0,0,0,0
2.06,1.625,0,0,0,0,0
2.061,1.25,0,0,0,0,0
2.062,1.875,0,0,0,0,0
2.063,2.5,0,0,0,0,0
2.064,1.875,0,0,0,0,0
2.065,1.5625,0,0,0,0,0
2.066,1.8125,0,0,0,0,0
2.067,2.1875,0,0,0,0,0
2.068,1.4375,0,0,0,0,0
2.069,1.25,0,0,0,0,0
2.07,0.9375,0,0,0,0,0
2.071,0.9375,0,0,0,0,0
2.072,0.6875,0,0,0,0,0
2.073,0.3125,0,0,0,0,0
2.074,0.3125,0,0,0,0,0
2.075,0,0,0,0,0,0
2.076,0.125,0,0,0,0,0
2.077,-0.3125,0,0,1,0,0
2.078,-0.625,0,0,0,0,0
2.079,-1.5625,0,0,0,0,0
2.08,-1.375,0,0,0,0,0
2.081,-1.875,0,0,0,0,0
2.082,-1.25,0,0,0,0,0
2.083,-0.625,0,0,0,0,0
2.084,-0.3125,0,0,0,0,0
2.085,0.3125,0,0,0,0,0
2.086,1.25,0,0,0,0,0
2.087,0.9375,0,0,0,0,0
2.088,0.4375,0,0,0,0,0
2.089,0.625,0,0,0,0,0
2.09,0.75,0,0,0,0,0
2.091,0.9375,0,0,0,0,0
2.092,0,0,0,0,0,0
2.093,-0.625,0,0,0,0,0
2.094,-0.25,0,0,0,0,0
2.095,-0.9375,0,0,0,0,0
2.096,-2.0625,0,0,0,0,0
2.097,-2.5,0,0,0,0,0
2.098,-2.625,0,0,0,0,0
2.099,-2.1875,0,0,0,0,0
2.1,-1.4375,0,0,0,0,0
2.101,-1.25,0,0,0,0,0
2.102,-1.25,0,0,0,0,0
2.103,-1.5625,0,0,0,0,0
2.104,-1.75,0,0,0,0,0
2.105,-1.5625,0,0,0,0,0
2.106,-0.8125,0,0,0,0,0
2.107,-0.9375,0,0,0,0,0
2.108,-1.125,0,0,0,0,0
2.109,-1.5625,0,0,0,0,0
2.11,-1.25,0,0,0,0,0
2.111,-1.5625,0,0,0,0,0
2.112,-0.625,0,0,0,0,0
2.113,-0.3125,0,0,0,0,0
2.114,-0.5,0,0,0,0,0
2.115,-0.3125,0,0,0,0,0
2.116,-1.8125,0,0,0,0,0
2.117,-2.1875,0,0,0,0,0
2.118,-1.5625,0,0,0,0,0
2.119,-1.5625,0,0,0,0,0
2.12,-1.875,0,0,0,0,0
2.121,-2.1875,0,0,0,0,0
2.122,-2.3125,0,0,0,0,0
2.123,-2.5,0,0,0,0,0
2.124,-1.875,0,0,0,0,0
2.125,-0.9375,0,0,0,0,0
2.126,-0.75,0,0,0,0,0
2.127,0.3125,0,0,0,0,0
2.128,0.8125,0,0,0,0,0
2.129,-0.625,0,0,0,0,0
2.13,-1.1875,0,0,0,0,0
2.131,-1.875,0,0,0,0,0
2.132,-1.75,0,0,0,0,0
2.133,-1.5625,0,0,0,0,0
2.134,-1.625,0,0,0,0,0
2.135,-0.625,0,0,0,0,0
2.136,-1.125,0,0,0,0,0
2.137,-0.9375,0,0,0,0,0
2.138,-1,0,0,0,0,0
2.139,-0.625,0,0,0,0,0
2.14,-0.5,0,0,0,0,0
2.141,-1.25,0,0,0,0,0
2.142,-1.25,0,0,0,0,0
2.143,-1.5625,0,0,0,0,0
2.144,-1.25,0,0,0,0,0
2.145,-0.9375,0,0,0,0,0
2.146,-2,0,0,0,0,0
2.147,-2.8125,0,0,0,0,0
2.148,-3.5625,0,0,0,0,0
2.149,-4.0625,0,0,0,0,0
2.15,-3.75,0,0,0,0,0
2.151,-3.125,0,0,0,0,0
2.152,-3,0,0,0,0,0
2.153,-2.5,0,0,0,0,0
2.154,-2.375,0,0,0,0,0
2.155,-2.5,0,0,0,0,0
2.156,-2.9375,0,0,0,0,0
2.157,-3.125,0,0,0,0,0
2.158,-2.5625,0,0,0,0,0
2.159,-2.5,0,0,0,0,0
2.16,-1.75,0,0,0,0,0
2.161,-1.25,0,0,0,0,0
2.162,-1.9375,0,0,0,0,0
2.163,-2.1875,0,0,0,0,0
2.164,-1.8125,0,0,0,0,0
2.165,-2.1875,0,0,0,0,0
2.166,-1.375,0,0,0,0,0
2.167,-1.875,0,0,0,0,0
2.168,-2.0625,0,0,0,0,0
2.169,-2.8125,0,0,0,0,0
2.17,-3,0,0,0,0,0
2.171,-3.125,0,0,0,0,0
2.172,-2.25,0,0,0,0,0
2.173,-2.8125,0,0,0,0,0
2.174,-2.8125,0,0,0,0,0
2.175,-3.4375,0,0,0,0,0
2.176,-3.125,0,0,0,0,0
2.177,-2.8125,0,0,0,0,0
2.178,-2.8125,0,0,0,0,0
2.179,-3.125,0,0,0,0,0
2.18,-2.8125,0,0,0,0,0
2.181,-2.8125,0,0,0,0,0
2.182,-3.4375,0,0,0,0,0
2.183,-4.0625,0,0,0,0,0
2.184,-4.5,0,0,0,0,0
2.185,-4.6875,0,0,0,0,0
2.186,-3.875,0,0,0,0,0
2.187,-3.125,0,0,0,0,0
2.188,-3.25,0,0,0,0,0
2.189,-3.125,0,0,0,0,0
2.19,-4.3125,0,0,0,0,0
2.191,-5.3125,0,0,0,0,0
2.192,-4.875,0,0,0,0,0
2.193,-4.6875,0,0,0,0,0
2.194,-4.875,0,0,0,0,0
2.195,-4.6875,0,0,0,0,0
2.196,-5,0,0,0,0,0
2.197,-5.625,0,0,0,0,0
2.198,-5.5,0,0,0,0,0
2.199,-5.3125,0,0,0,0,0
2.2,-5.8125,0,0,0,0,0
2.201,-5.9375,0,0,0,0,0
2.202,-6.125,0,0,0,0,0
2.203,-5,0,0,0,0,0
2.204,-5.8125,0,0,0,0,0
2.205,-5.3125,0,0,0,0,0
2.206,-5.875,0,0,0,0,0
2.207,-5.9375,0,0,0,0,0
2.208,-5.1875,0,0,0,0,0
2.209,-4.0625,0,0,0,0,0
2.21,-4.875,0,0,0,0,0
2.211,-4.0625,0,0,0,0,0
2.212,-4.4375,0,0,0,0,0
2.213,-4.6875,0,0,0,0,0
2.214,-4.9375,0,0,0,0,0
2.215,-5.9375,0,0,0,0,0
2.216,-5.9375,0,0,0,0,0
2.217,-5.9375,0,0,0,0,0
2.218,-6.1875,0,0,0,0,0
2.219,-6.25,0,0,0,0,0
2.22,-6.25,0,0,0,0,0
2.221,-6.25,0,0,0,0,0
2.222,-6.375,0,0,0,0,0
2.223,-6.875,0,0,0,0,0
2.224,-7,0,0,0,0,0
2.225,-6.875,0,0,0,0,0
2.226,-6.4375,0,0,0,0,0
2.227,-5.625,0,0,0,0,0
2.228,-5.125,0,0,0,0,0
2.229,-4.375,0,0,0,0,0
2.23,-4.4375,0,0,0,0,0
2.231,-4.0625,0,0,0,0,0
2.232,-3.9375,0,0,0,0,0
2.233,-4.0625,0,0,0,0,0
2.234,-5.4375,0,0,0,0,0
2.235,-5.9375,0,0,0,0,0
2.236,-5.9375,0,0,0,0,0
2.237,-6.5625,0,0,0,0,0
2.238,-7.1875,0,0,0,0,0
2.239,-8.4375,0,0,0,0,0
2.24,-8.875,0,0,0,0,0
2.241,-9.375,0,0,0,0,0
2.242,-9.5,0,0,0,0,0
2.243,-9.375,0,0,0,0,0
2.244,-8.4375,0,0,0,1,0
2.245,-8.125,0,0,0,0,0
2.246,-8,0,0,0,0,0
2.247,-8.125,0,0,0,0,0
2.248,-8.25,0,0,0,0,0
2.249,-8.75,0,0,0,0,0
2.25,-8.75,0,0,0,0,0
2.251,-9.0625,0,0,0,0,0
2.252,-8.4375,0,0,0,0,0
2.253,-7.1875,0,0,0,0,0
2.254,-6.25,0,0,0,0,0
2.255,-6.5625,0,0,0,0,0
2.256,-7.1875,0,0,0,0,0
2.257,-6.875,0,0,0,0,0
2.258,-6.0625,0,0,0,0,0
2.259,-6.875,0,0,0,0,0
2.26,-6.8125,0,0,0,0,0
2.261,-7.1875,0,0,0,0,0
2.262,-6.6875,0,0,0,0,0
2.263,-6.25,0,0,0,0,0
2.264,-6.125,0,0,0,0,0
2.265,-6.25,0,0,0,0,0
2.266,-6.25,0,0,0,0,0
2.267,-5.625,0,0,0,0,0
2.268,-6.5625,0,0,0,0,0
2.269,-7.1875,0,0,0,0,0
2.27,-8,0,0,0,0,0
2.271,-8.4375,0,0,0,0,0
2.272,-6.9375,0,0,0,0,0
2.273,-6.25,0,0,0,0,0
2.274,-5.4375,0,0,0,0,0
2.275,-4.6875,0,0,0,0,0
2.276,-4.8125,0,0,0,0,0
2.277,-5.3125,0,0,0,0,0
2.278,-6.0625,0,0,0,0,0
2.279,-5.9375,0,0,0,0,0
2.28,-6.0625,0,0,0,0,0
2.281,-5.625,0,0,0,0,0
2.282,-5.3125,0,0,0,0,0
2.283,-4.375,0,0,0,0,0
2.284,-4.6875,0,0,0,0,0
2.285,-4.0625,0,0,0,0,0
2.286,-4.875,0,0,0,0,0
2.287,-5,0,0,0,0,0
2.288,-4.1875,0,0,0,0,0
2.289,-3.75,0,0,0,0,0
2.29,-4.3125,0,0,0,0,0
2.291,-4.375,0,0,0,0,0
2.292,-4.5625,0,0,0,0,0
2.293,-4.375,0,0,0,0,0
2.294,-3.75,0,0,0,0,0
2.295,-3.125,0,0,0,0,0
2.296,-2.625,0,0,0,0,0
2.297,-2.1875,0,0,0,0,0
2.298,-2.75,0,0,0,0,0
2.299,-2.5,0,0,0,0,0
2.3,-2.0625,0,0,0,0,0
2.301,-0.9375,0,0,0,0,0
2.302,-1.75,0,0,0,0,0
2.303,-1.25,0,0,0,0,0
2.304,-0.9375,0,0,0,0,0
2.305,-1.25,0,0,0,0,0
2.306,-1.6875,0,0,0,0,0
2.307,-1.875,0,0,0,0,0
2.308,-2.3125,0,0,0,0,0
2.309,-2.1875,0,0,0,0,0
2.31,-1.75,0,0,0,0,0
2.311,-2.1875,0,0,0,0,0
2.312,-1.875,0,0,0,0,0
2.313,-1.25,0,0,0,0,0
2.314,-0.4375,0,0,0,0,0
2.315,-1.25,0,0,0,0,0
2.316,-0.5,0,0,0,0,0
2.317,0,0,0,0,0,0
2.318,-0.75,0,0,0,0,0
2.319,-0.625,0,0,0,0,0
2.32,-1.375,0,0,0,0,0
2.321,-1.5625,0,0,0,0,0
2.322,-1.125,0,0,0,0,0
2.323,0,0,0,0,0,0
2.324,0.25,0,0,0,0,0
2.325,0.625,0,0,0,0,1
2.326,1.0625,0,0,0,0,0
2.327,1.25,0,0,0,0,0
2.328,1.875,0,0,0,0,0
2.329,1.875,0,0,0,0,0
2.33,1.625,0,0,0,0,0
2.331,0.9375,0,0,0,0,0
2.332,1.375,0,0,0,0,0
2.333,2.5,0,0,0,0,0
2.334,2.5,0,0,0,0,0
2.335,3.125,0,0,0,0,0
2.336,1.875,0,0,0,0,0
2.337,0.3125,0,0,0,0,0
2.338,-0.3125,0,0,0,0,0
2.339,-1.25,0,0,0,0,0
2.34,-2.5,0,0,0,0,0
2.341,-3.4375,0,0,0,0,0
2.342,-2.625,0,0,0,0,0
2.343,-1.5625,0,0,0,0,0
2.344,-1.125,0,0,0,0,0
2.345,-0.3125,0,0,0,0,0
2.346,0.3125,0,0,0,0,0
2.347,0.3125,0,0,0,0,0
2.348,0.625,0,0,0,0,0
2.349,0.3125,0,0,0,0,0
2.35,-0.125,0,0,0,0,0
2.351,-0.9375,0,0,0,0,0
2.352,-0.9375,0,0,0,0,0
2.353,-0.9375,0,0,0,0,0
2.354,0,0,0,0,0,0
2.355,0.625,0,0,0,0,0
2.356,0.5,0,0,0,0,0
2.357,0,0,0,0,0,0
2.358,-0.125,0,0,0,0,0
2.359,0,0,0,0,0,0
2.36,0.1875,0,0,0,0,0
2.361,0,0,0,0,0,0
2.362,0,0,0,0,0,0
2.363,-0.3125,0,0,0,0,0
2.364,0,0,0,0,0,0
2.365,0,0,0,0,0,0
2.366,0.625,0,0,0,0,0
2.367,1.25,0,0,0,0,0
2.368,-0.125,0,0,0,0,0
2.369,-0.9375,0,0,0,0,0
2.37,-0.9375,0,0,0,0,0
2.371,-1.25,0,0,0,0,0
2.372,-0.5,0,0,0,0,0
2.373,-0.625,0,0,0,0,0
2.374,0.125,0,0,0,0,0
2.375,0,0,0,0,0,0
2.376,-0.125,0,0,0,0,0
2.377,-0.3125,0,0,0,0,0
2.378,-0.125,0,0,0,0,0
2.379,0.625,0,0,0,0,0
2.38,2.1875,0,0,0,0,0
2.381,2.8125,0,0,0,0,0
2.382,2,0,0,0,0,0
2.383,1.875,0,0,0,0,0
2.384,2,0,0,0,0,0
2.385,1.875,0,0,0,0,0
2.386,1.5625,0,0,0,0,0
2.387,0.3125,0,0,0,0,0
2.388,0.9375,0,0,0,0,0
2.389,1.25,0,0,0,0,0
2.39,1.625,0,0,0,0,0
2.391,1.5625,0,0,0,0,0
2.392,1.375,0,0,0,0,0
2.393,1.25,0,0,0,0,0
2.394,2.1875,0,0,0,0,0
2.395,2.5,0,0,0,0,0
2.396,1.9375,0,0,0,0,0
2.397,0.9375,0,0,0,0,0
2.398,0.625,0,0,0,0,0
2.399,0.9375,0,0,0,0,0
2.4,1.1875,0,0,0,0,0
2.401,0.625,0,0,0,0,0
2.402,0.8125,0,0,0,0,0
2.403,0.3125,0,0,0,0,0
2.404,0.5625,0,0,0,0,0
2.405,0.9375,0,0,0,0,0
2.406,1.125,0,0,0,0,0
2.407,0,0,0,0,0,0
2.408,0.25,0,0,0,0,0
2.409,0.625,0,0,0,0,0
2.41,0.75,0,0,0,0,0
2.411,0,0,0,0,0,0
2.412,0.8125,0,0,0,0,0
2.413,0.3125,0,0,0,0,0
2.414,-0.3125,0,0,0,0,0
2.415,-0.625,0,0,0,0,0
2.416,0,0,0,0,0,0
2.417,-0.3125,0,0,0,0,0
2.418,1.0625,0,0,0,0,0
2.419,2.1875,0,0,0,0,0
2.42,2.0625,0,0,0,0,0
2.421,1.5625,0,0,0,0,0
2.422,1.25,0,0,0,0,0
2.423,1.5625,0,0,0,0,0
2.424,1.4375,0,0,0,0,0
2.425,1.5625,0,0,0,0,0
2.426,2.3125,0,0,0,0,0
2.427,2.5,0,0,0,0,0
2.428,2.25,0,0,0,0,0
2.429,2.1875,0,0,0,0,0
2.43,1.9375,0,0,0,0,0
2.431,1.5625,0,0,0,0,0
2.432,0.625,0,0,0,0,0
2.433,0.625,0,0,0,0,0
2.434,0.4375,0,0,0,0,0
2.435,0.3125,0,0,0,0,0
2.436,-0.4375,0,0,0,0,0
2.437,-1.875,0,0,0,0,0
2.438,-1.75,0,0,0,0,0
2.439,-0.9375,0,0,0,0,0
2.44,-0.625,0,0,0,0,0
2.441,0.3125,0,0,0,0,0
2.442,0.75,0,0,0,0,0
2.443,0.9375,0,0,0,0,0
2.444,1.1875,0,0,0,0,0
2.445,1.5625,0,0,0,0,0
2.446,1.4375,0,0,0,0,0
2.447,1.25,0,0,0,0,0
2.448,1.375,0,0,0,0,0
2.449,1.5625,0,0,0,0,0
2.45,1,0,0,0,0,0
2.451,1.5625,0,0,0,0,0
2.452,1.25,0,0,0,0,0
2.453,0.9375,0,0,0,0,0
2.454,0.875,0,0,0,0,0
2.455,1.25,0,0,0,0,0
2.456,1.25,0,0,0,0,0
2.457,0.9375,0,0,0,0,0
2.458,0.5,0,0,0,0,0
2.459,-0.625,0,0,0,0,0
2.46,-1.125,0,0,0,0,0
2.461,-2.1875,0,0,0,0,0
2.462,-1.6875,0,0,0,0,0
2.463,-2.8125,0,0,0,0,0
2.464,-2.625,0,0,0,0,0
2.465,-2.1875,0,0,0,0,0
2.466,-1.375,0,0,0,0,0
2.467,-0.3125,0,0,0,0,0
2.468,0.4375,0,0,0,0,0
2.469,0.3125,0,0,0,0,0
2.47,0.4375,0,0,0,0,0
2.471,0,0,0,0,0,0
2.472,-0.1875,0,0,0,0,0
2.473,0,0,0,0,0,0
2.474,-0.3125,0,0,0,0,0
2.475,-0.625,0,0,0,0,0
2.476,-0.4375,0,0,0,0,0
2.477,0,0,0,0,0,0
2.478,-0.3125,0,0,0,0,0
2.479,-1.5625,0,0,0,0,0
2.48,-1.0625,0,0,0,0,0
2.481,-1.25,0,0,0,0,0
2.482,-0.8125,0,0,0,0,0
2.483,-1.25,0,0,0,0,0
2.484,-1.8125,0,0,0,0,0
2.485,-1.875,0,0,0,0,0
2.486,-1.25,0,0,0,0,0
2.487,-1.875,0,0,0,0,0
2.488,-1.75,0,0,0,0,0
2.489,-0.625,0,0,0,0,0
2.49,-0.625,0,0,0,0,0
2.491,0.3125,0,0,0,0,0
2.492,0.4375,0,0,0,0,0
2.493,0.625,0,0,0,0,0
2.494,0,0,0,0,0,0
2.495,-1.25,0,0,0,0,0
2.496,-0.125,0,0,0,0,0
2.497,0.9375,0,0,0,0,0
2.498,1.6875,0,0,0,0,0
2.499,3.4375,0,0,0,0,0
2.5,3,0,0,0,0,0
2.501,3.125,0,0,0,0,0
2.502,3.4375,0,0,0,0,0
2.503,2.5,0,0,0,0,0
2.504,2.25,0,0,0,0,0
2.505,1.25,0,0,0,0,0
2.506,0.1875,0,0,0,0,0
2.507,0,0,0,0,0,0
2.508,0.4375,0,0,0,0,0
2.509,0.9375,0,0,0,0,0
2.51,0.9375,0,0,0,0,0
2.511,0.3125,0,0,0,0,0
2.512,0,0,0,0,0,0
2.513,0,0,0,0,0,0
2.514,0,0,0,0,0,0
2.515,-0.3125,0,0,0,0,0
2.516,-0.3125,0,0,0,0,0
2.517,-0.625,0,0,0,0,0
2.518,-1.1875,0,0,0,0,0
2.519,-1.5625,0,0,0,0,0
2.52,-2.3125,0,0,0,0,0
2.521,-3.4375,0,0,0,0,0
2.522,-3.125,0,0,0,0,0
2.523,-2.8125,0,0,0,0,0
2.524,-1.75,0,0,0,0,0
2.525,-1.25,0,0,0,0,0
2.526,-0.9375,0,0,0,0,0
2.527,-0.625,0,0,0,0,0
2.528,0,0,0,0,0,0
2.529,-0.3125,0,0,0,0,0
2.53,-0.1875,0,0,0,0,0
2.531,0,0,0,0,0,0
2.532,0.3125,0,0,0,0,0
2.533,0,0,0,0,0,0
2.534,0.625,0,0,0,0,0
2.535,0.9375,0,0,0,0,0
2.536,1.5,0,0,0,0,0
2.537,2.1875,0,0,0,0,0
2.538,1.4375,0,0,0,0,0
2.539,0.625,0,0,0,0,0
2.54,0.5,0,0,0,0,0
2.541,0.3125,0,0,0,0,0
2.542,0.5,0,0,0,0,0
2.543,0.625,0,0,0,0,0
2.544,1.0625,0,0,0,0,0
2.545,1.5625,0,0,0,0,0
2.546,2.375,0,0,0,0,0
2.547,3.125,0,0,0,0,0
2.548,2.5625,0,0,0,0,0
2.549,1.875,0,0,0,0,0
2.55,0.9375,0,0,0,0,0
2.551,0,0,0,0,0,0
2.552,-0.5,0,0,0,0,0
2.553,-0.9375,0,0,0,0,0
2.554,-0.9375,0,0,0,0,0
2.555,-0.9375,0,0,0,0,0
2.556,-0.9375,0,0,0,0,0
2.557,-0.9375,0,0,0,0,0
2.558,-1.0625,0,0,0,0,0
2.559,-1.25,0,0,0,0,0
2.56,-2.625,0,0,0,0,0
2.561,-4.0625,0,0,0,0,0
2.562,-3.9375,0,0,0,0,0
2.563,-3.75,0,0,0,0,0
2.564,-1.875,0,0,0,0,0
2.565,0,0,0,0,0,0
2.566,-0.1875,0,0,0,0,0
2.567,-0.3125,0,0,0,0,0
2.568,-0.625,0,0,0,0,0
2.569,-0.9375,0,0,0,0,0
2.57,-1.25,0,0,0,0,0
2.571,-1.5625,0,0,0,0,0
2.572,-1.3125,0,0,0,0,0
2.573,-0.9375,0,0,0,0,0
2.574,-1.125,0,0,0,0,0
2.575,-1.25,0,0,0,0,0
2.576,-1.25,0,0,0,0,0
2.577,-1.25,0,0,0,0,0
2.578,-1.5625,0,0,0,0,0
2.579,-1.875,0,0,0,0,0
2.58,-1.4375,0,0,0,0,0
2.581,-0.9375,0,0,0,0,0
2.582,-1.6875,0,0,0,0,0
2.583,-2.5,0,0,0,0,0
2.584,-3.25,0,0,0,0,0
2.585,-4.0625,0,0,0,0,0
2.586,-4.5,0,0,0,0,0
2.587,-5,0,0,0,0,0
2.588,-4.375,0,0,0,0,0
2.589,-3.75,0,0,0,0,0
2.59,-3.625,0,0,0,0,0
2.591,-3.4375,0,0,0,0,0
2.592,-4.5,0,0,0,0,0
2.593,-5.625,0,0,0,0,0
2.594,-5.0625,0,0,0,0,0
2.595,-4.375,0,0,0,0,0
2.596,-3.125,0,0,0,0,0
2.597,-1.875,0,0,0,0,0
2.598,-0.8125,0,0,0,0,0
2.599,0.3125,0,0,0,0,0
2.6,0,0,0,0,0,0
2.601,-0.3125,0,0,0,0,0
2.602,-1.4375,0,0,0,0,0
2.603,-2.5,0,0,0,0,0
2.604,-3.3125,0,0,0,0,0
2.605,-4.0625,0,0,0,0,0
2.606,-4.1875,0,0,0,0,0
2.607,-4.375,0,0,0,0,0
2.608,-3.4375,0,0,0,0,0
2.609,-2.5,0,0,0,0,0
2.61,-2,0,0,0,0,0
2.611,-1.5625,0,0,0,0,0
2.612,-1.3125,0,0,0,0,0
2.613,-0.9375,0,0,0,0,0
2.614,-0.625,0,0,0,0,0
2.615,-0.3125,0,0,0,0,0
2.616,-0.625,0,0,0,0,0
2.617,-0.9375,0,0,0,0,0
2.618,-0.9375,0,0,0,0,0
2.619,-0.9375,0,0,0,0,0
2.62,-0.9375,0,0,0,0,0
2.621,-0.9375,0,0,0,0,0
2.622,-0.625,0,0,0,0,0
2.623,-0.3125,0,0,0,0,0
2.624,-0.5,0,0,0,0,0
2.625,-0.625,0,0,0,0,0
2.626,-0.5,0,0,0,0,0
2.627,-0.3125,0,0,0,0,0
2.628,-0.625,0,0,0,0,0
2.629,-0.9375,0,0,0,0,0
2.63,-1.1875,0,0,0,0,0
2.631,-1.5625,0,0,0,0,0
2.632,-1.3125,0,0,0,0,0
2.633,-0.9375,0,0,0,0,0
2.634,-0.75,0,0,0,0,0
2.635,-0.625,0,0,0,0,0
2.636,-0.125,0,0,0,0,0
2.637,0.3125,0,0,0,0,0
2.638,0.5625,0,0,0,0,0
2.639,0.9375,0,0,0,0,0
2.64,0.375,0,0,0,0,0
2.641,-0.3125,0,0,0,0,0
2.642,-0.3125,0,0,0,0,0
2.643,-0.3125,0,0,0,0,0
2.644,-0.3125,0,0,0,0,0
2.645,-0.3125,0,0,0,0,0
2.646,-0.1875,0,0,0,0,0
2.647,0,0,0,0,0,0
2.648,0,0,0,0,0,0
2.649,0,0,0,0,0,0
2.65,-0.125,0,0,0,0,0
2.651,-0.3125,0,0,0,0,0
2.652,-0.3125,0,0,0,0,0
2.653,-0.3125,0,0,0,0,0
2.654,-0.125,0,0,0,0,0
2.655,0,0,0,0,0,0
2.656,-0.9375,0,0,0,0,0
2.657,-1.875,0,0,0,0,0
2.658,-2.125,0,0,0,0,0
2.659,-2.5,0,0,0,0,0
2.66,-2.25,0,0,0,0,0
2.661,-1.875,0,0,0,0,0
2.662,-1.4375,0,0,0,0,0
2.663,-0.9375,0,0,0,0,0
2.664,-0.0625,0,0,0,0,0
2.665,0.9375,0,0,0,0,0
2.666,1.375,0,0,0,0,0
2.667,1.875,0,0,0,0,0
2.668,1.5625,0,0,0,0,0
2.669,1.25,0,0,0,0,0
2.67,1.375,0,0,0,0,0
2.671,1.5625,0,0,0,0,0
2.672,0.6875,0,0,0,0,0
2.673,-0.3125,0,0,0,0,0
2.674,0.125,0,0,0,0,0
2.675,0.625,0,0,0,0,0
2.676,1.0625,0,0,0,0,0
2.677,1.5625,0,0,0,0,0
2.678,1.6875,0,0,0,0,0
2.679,1.875,0,0,0,0,0
2.68,1.4375,0,0,0,0,0
2.681,0.9375,0,0,0,0,0
2.682,0.3125,0,0,0,0,0
2.683,-0.3125,0,0,0,0,0
2.684,-0.75,0,0,0,0,0
2.685,-1.25,0,0,0,0,0
2.686,-2.1875,0,0,0,0,0
2.687,-3.125,0,0,0,0,0
2.688,-2.625,0,0,0,0,0
2.689,-2.1875,0,0,0,0,0
2.69,-1.75,0,0,0,0,0
2.691,-1.25,0,0,0,0,0
2.692,-0.625,0,0,0,0,0
2.693,0,0,0,0,0,0
2.694,0,0,0,0,0,0
2.695,0,0,0,0,0,0
2.696,-0.5,0,0,0,0,0
2.697,-0.9375,0,0,0,0,0
2.698,-0.8125,0,0,0,0,0
2.699,-0.625,0,0,0,0,0
2.7,-0.9375,0,0,0,0,0
2.701,-1.25,1,0,0,0,0
2.702,-1.25,0,0,0,0,0
2.703,-1.25,0,0,0,0,0
2.704,-0.625,0,0,0,0,0
2.705,0,0,0,0,0,0
2.706,0,0,0,0,0,0
2.707,0,0,0,0,0,0
2.708,-0.125,0,0,0,0,0
2.709,-0.3125,0,0,0,0,0
2.71,-1.25,0,0,0,0,0
2.711,-2.1875,0,0,0,0,0
2.712,-2.3125,0,0,0,0,0
2.713,-2.5,0,0,0,0,0
2.714,-3,0,0,0,0,0
2.715,-3.4375,0,0,0,0,0
2.716,-5.3125,0,0,0,0,0
2.717,-7.1875,0,0,0,0,0
2.718,-7.625,0,0,0,0,0
2.719,-8.125,0,0,0,0,0
2.72,-8.875,0,0,0,0,0
2.721,-9.6875,0,0,0,0,0
2.722,-9.6875,0,0,0,0,0
2.723,-9.6875,0,0,0,0,0
2.724,-10.938,0,0,0,0,0
2.725,-12.188,0,0,0,0,0
2.726,-12.938,0,0,0,0,0
2.727,-13.75,0,0,0,0,0
2.728,-15.625,0,0,0,0,0
2.729,-17.5,0,0,0,0,0
2.73,-20.5,0,0,0,0,0
2.731,-23.438,0,0,0,0,0
2.732,-24.25,0,0,0,0,0
2.733,-25,0,0,0,0,0
2.734,-26.25,0,0,0,0,0
2.735,-27.5,0,0,0,0,0
2.736,-28.938,0,0,0,0,0
2.737,-30.313,0,0,0,0,0
2.738,-30.75,0,0,0,0,0
2.739,-31.25,0,0,0,0,0
2.74,-30.5,0,0,0,0,0
2.741,-29.688,0,0,0,0,0
2.742,-28.188,0,0,0,0,0
2.743,-26.563,0,0,0,0,0
2.744,-24.875,0,0,0,0,0
2.745,-23.125,0,0,0,0,0
2.746,-20.625,0,0,0,0,0
2.747,-18.125,0,0,0,0,0
2.748,-13.75,0,0,0,0,0
2.749,-9.375,0,0,0,0,0
2.75,-5,0,0,0,0,0
2.751,-0.625,0,0,0,0,0
2.752,2.625,0,0,0,0,0
2.753,5.9375,0,0,0,0,0
2.754,10.438,0,0,0,0,0
2.755,15,0,0,0,0,0
2.756,19.688,0,0,0,0,0
2.757,24.375,0,0,0,0,0
2.758,27.75,0,0,0,0,0
2.759,31.25,0,0,0,0,0
2.76,35.75,0,0,0,0,0
2.761,40.313,0,0,0,0,0
2.762,41.875,0,0,0,0,0
2.763,43.438,0,0,0,0,0
2.764,43.688,0,0,0,0,0
2.765,44.063,0,1,0,0,0
2.766,44.625,0,0,0,0,0
2.767,45.313,0,1,0,0,0
2.768,45,0,0,0,0,0
2.769,44.688,0,0,0,0,0
2.77,43,0,0,0,0,0
2.771,41.25,0,0,0,0,0
2.772,36.875,0,0,0,0,0
2.773,32.5,0,0,0,0,0
2.774,31.25,0,0,0,0,0
2.775,30,0,0,0,0,0
2.776,28.75,0,0,0,0,0
2.777,27.5,0,0,0,0,0
2.778,26.75,0,0,0,0,0
2.779,25.938,0,0,0,0,0
2.78,24.438,0,0,0,0,0
2.781,22.813,0,0,0,0,0
2.782,22.063,0,0,0,0,0
2.783,21.25,0,0,0,0,0
2.784,21.5,0,0,0,0,0
2.785,21.875,0,0,0,0,0
2.786,20.813,0,0,0,0,0
2.787,19.688,0,0,0,0,0
2.788,18.625,0,0,0,0,0
2.789,17.5,0,0,0,0,0
2.79,16,0,0,0,0,0
2.791,14.375,0,0,0,0,0
2.792,14.813,0,0,0,0,0
2.793,15.313,0,0,0,0,0
2.794,15.188,0,0,0,0,0
2.795,15,0,0,0,0,0
2.796,15.125,0,0,0,0,0
2.797,15.313,0,0,0,0,0
2.798,15.625,0,0,0,0,0
2.799,15.938,0,0,0,0,0
2.8,15.5,0,0,0,0,0
2.801,15,0,0,0,0,0
2.802,15.813,0,0,0,0,0
2.803,16.563,0,0,0,0,0
2.804,15.313,0,0,0,0,0
2.805,14.063,0,0,0,0,0
2.806,13,0,0,0,0,0
2.807,11.875,0,0,0,0,0
2.808,11.875,0,0,0,0,0
2.809,11.875,0,0,0,0,0
2.81,11.063,0,0,0,0,0
2.811,10.313,0,0,0,0,0
2.812,9.6875,0,0,0,0,0
2.813,9.0625,0,0,0,0,0
2.814,9.5,0,0,0,0,0
2.815,10,0,0,0,0,0
2.816,10.625,0,0,0,0,0
2.817,11.25,0,0,0,0,0
2.818,10.938,0,0,0,0,0
2.819,10.625,0,0,0,0,0
2.82,10.813,0,0,0,0,0
2.821,10.938,0,0,0,0,0
2.822,11.063,0,0,0,0,0
2.823,11.25,0,0,0,0,0
2.824,11.75,0,0,0,0,0
2.825,12.188,0,0,0,0,0
2.826,12.063,0,0,0,0,0
2.827,11.875,0,0,0,0,0
2.828,11.125,0,0,0,0,0
2.829,10.313,0,0,0,0,0
2.83,10,0,0,0,0,0
2.831,9.6875,0,0,0,0,0
2.832,10.75,0,0,0,0,0
2.833,11.875,0,0,0,0,0
2.834,11.75,0,0,0,0,0
2.835,11.563,0,0,0,0,0
2.836,10.625,0,0,0,0,0
2.837,9.6875,0,0,0,0,0
2.838,9.6875,0,0,0,0,0
2.839,9.6875,0,0,0,0,0
2.84,9.375,0,0,0,0,0
2.841,9.0625,0,0,0,0,0
2.842,8.625,0,0,0,0,0
2.843,8.125,0,0,0,0,0
2.844,7.8125,0,0,0,0,0
2.845,7.5,0,0,0,0,0
2.846,7.0625,0,0,0,0,0
2.847,6.5625,0,0,0,0,0
2.848,6.6875,0,0,0,0,0
2.849,6.875,0,0,0,0,0
2.85,6.875,0,0,0,0,0
2.851,6.875,0,0,0,0,0
2.852,5.5,0,0,0,0,0
2.853,4.0625,0,0,0,0,0
2.854,2.0625,0,0,0,0,0
2.855,0,0,0,0,0,0
2.856,0.875,0,0,0,0,0
2.857,1.875,0,0,0,0,0
2.858,1.4375,0,0,0,0,0
2.859,0.9375,0,0,0,0,0
2.86,-0.1875,0,0,0,0,0
2.861,-1.25,0,0,0,0,0
2.862,-1.5625,0,0,0,0,0
2.863,-1.875,0,0,0,0,0
2.864,-1.75,0,0,0,0,0
2.865,-1.5625,0,0,1,0,0
2.866,-1,0,0,0,0,0
2.867,-0.3125,0,0,0,0,0
2.868,-0.625,0,0,0,0,0
2.869,-0.9375,0,0,0,0,0
2.87,-0.8125,0,0,0,0,0
2.871,-0.625,0,0,0,0,0
2.872,-0.75,0,0,0,0,0
2.873,-0.9375,0,0,0,0,0
2.874,-0.625,0,0,0,0,0
2.875,-0.3125,0,0,0,0,0
2.876,-0.0625,0,0,0,0,0
2.877,0.3125,0,0,0,0,0
2.878,-0.1875,0,0,0,0,0
2.879,-0.625,0,0,0,0,0
2.88,-0.8125,0,0,0,0,0
2.881,-0.9375,0,0,0,0,0
2.882,-1.5625,0,0,0,0,0
2.883,-2.1875,0,0,0,0,0
2.884,-2.375,0,0,0,0,0
2.885,-2.5,0,0,0,0,0
2.886,-2.5,0,0,0,0,0
2.887,-2.5,0,0,0,0,0
2.888,-2.1875,0,0,0,0,0
2.889,-1.875,0,0,0,0,0
2.89,-1.5625,0,0,0,0,0
2.891,-1.25,0,0,0,0,0
2.892,-1.4375,0,0,0,0,0
2.893,-1.5625,0,0,0,0,0
2.894,-1.25,0,0,0,0,0
2.895,-0.9375,0,0,0,0,0
2.896,-0.9375,0,0,0,0,0
2.897,-0.9375,0,0,0,0,0
2.898,-0.3125,0,0,0,0,0
2.899,0.3125,0,0,0,0,0
2.9,0.1875,0,0,0,0,0
2.901,0,0,0,0,0,0
2.902,0.3125,0,0,0,0,0
2.903,0.625,0,0,0,0,0
2.904,0.5,0,0,0,0,0
2.905,0.3125,0,0,0,0,0
2.906,0.3125,0,0,0,0,0
2.907,0.3125,0,0,0,0,0
2.908,0.4375,0,0,0,0,0
2.909,0.625,0,0,0,0,0
2.91,0.8125,0,0,0,0,0
2.911,0.9375,0,0,0,0,0
2.912,0.6875,0,0,0,0,0
2.913,0.3125,0,0,0,0,0
2.914,-0.875,0,0,0,0,0
2.915,-2.1875,0,0,0,0,0
2.916,-2.6875,0,0,0,0,0
2.917,-3.125,0,0,0,0,0
2.918,-2.8125,0,0,0,0,0
2.919,-2.5,0,0,0,0,0
2.92,-2.0625,0,0,0,0,0
2.921,-1.5625,0,0,0,0,0
2.922,-1.6875,0,0,0,0,0
2.923,-1.875,0,0,0,0,0
2.924,-2.3125,0,0,0,0,0
2.925,-2.8125,0,0,0,0,0
2.926,-3.375,0,0,0,0,0
2.927,-4.0625,0,0,0,0,0
2.928,-3.75,0,0,0,0,0
2.929,-3.4375,0,0,0,0,0
2.93,-3.125,0,0,0,0,0
2.931,-2.8125,0,0,0,0,0
2.932,-2.8125,0,0,0,0,0
2.933,-2.8125,0,0,0,0,0
2.934,-2.5,0,0,0,0,0
2.935,-2.1875,0,0,0,0,0
2.936,-2,0,0,0,0,0
2.937,-1.875,0,0,0,0,0
2.938,-1.625,0,0,0,0,0
2.939,-1.25,0,0,0,0,0
2.94,-2,0,0,0,0,0
2.941,-2.8125,0,0,0,0,0
2.942,-3.75,0,0,0,0,0
2.943,-4.6875,0,0,0,0,0
2.944,-3.9375,0,0,0,0,0
2.945,-3.125,0,0,0,0,0
2.946,-2.9375,0,0,0,0,0
2.947,-2.8125,0,0,0,0,0
2.948,-2.375,0,0,0,0,0
2.949,-1.875,0,0,0,0,0
2.95,-1.75,0,0,0,0,0
2.951,-1.5625,0,0,0,0,0
2.952,-1.5625,0,0,0,0,0
2.953,-1.5625,0,0,0,0,0
2.954,-2.3125,0,0,0,0,0
2.955,-3.125,0,0,0,0,0
2.956,-3,0,0,0,0,0
2.957,-2.8125,0,0,0,0,0
2.958,-2.0625,0,0,0,0,0
2.959,-1.25,0,0,0,0,0
2.96,-0.8125,0,0,0,0,0
2.961,-0.3125,0,0,0,0,0
2.962,-1.375,0,0,0,0,0
2.963,-2.5,0,0,0,0,0
2.964,-3.3125,0,0,0,0,0
2.965,-4.0625,0,0,0,0,0
2.966,-4.375,0,0,0,0,0
2.967,-4.6875,0,0,0,0,0
2.968,-4.4375,0,0,0,0,0
2.969,-4.0625,0,0,0,0,0
2.97,-4.3125,0,0,0,0,0
2.971,-4.6875,0,0,0,0,0
2.972,-4.5625,0,0,0,0,0
2.973,-4.375,0,0,0,0,0
2.974,-4.5625,0,0,0,0,0
2.975,-4.6875,0,0,0,0,0
2.976,-4.6875,0,0,0,0,0
2.977,-4.6875,0,0,0,0,0
2.978,-4.5625,0,0,0,0,0
2.979,-4.375,0,0,0,0,0
2.98,-4.375,0,0,0,0,0
2.981,-4.375,0,0,0,0,0
2.982,-4.0625,0,0,0,0,0
2.983,-3.75,0,0,0,0,0
2.984,-3.625,0,0,0,0,0
2.985,-3.4375,0,0,0,0,0
2.986,-3.875,0,0,0,0,0
2.987,-4.375,0,0,0,0,0
2.988,-4.5,0,0,0,0,0
2.989,-4.6875,0,0,0,0,0
2.99,-4.375,0,0,0,0,0
2.991,-4.0625,0,0,0,0,0
2.992,-4.375,0,0,0,0,0
2.993,-4.6875,0,0,0,0,0
2.994,-4.6875,0,0,0,0,0
2.995,-4.6875,0,0,0,0,0
2.996,-5.1875,0,0,0,0,0
2.997,-5.625,0,0,0,0,0
2.998,-5.75,0,0,0,0,0
2.999,-5.9375,0,0,0,0,0
3,-6.25,0,0,0,0,0
3.001,-6.5625,0,0,0,0,0
3.002,-6.125,0,0,0,0,0
3.003,-5.625,0,0,0,0,0
3.004,-5.75,0,0,0,0,0
3.005,-5.9375,0,0,0,0,0
3.006,-6.25,0,0,0,0,0
3.007,-6.5625,0,0,0,0,0
3.008,-6.3125,0,0,0,0,0
3.009,-5.9375,0,0,0,0,0
3.01,-6.25,0,0,0,0,0
3.011,-6.5625,0,0,0,0,0
3.012,-5.625,0,0,0,0,0
3.013,-4.6875,0,0,0,0,0
3.014,-4.6875,0,0,0,0,0
3.015,-4.6875,0,0,0,0,0
3.016,-6.375,0,0,0,0,0
3.017,-8.125,0,0,0,0,0
3.018,-7.8125,0,0,0,0,0
3.019,-7.5,0,0,0,0,0
3.02,-7.375,0,0,0,0,0
3.021,-7.1875,0,0,0,0,0
3.022,-7.9375,0,0,0,0,0
3.023,-8.75,0,0,0,0,0
3.024,-8.75,0,0,0,0,0
3.025,-8.75,0,0,0,0,0
3.026,-10,0,0,0,1,0
3.027,-11.25,0,0,0,0,0
3.028,-11.25,0,0,0,0,0
3.029,-10.938,0,0,0,0,0
3.03,-10.938,0,0,0,0,0
3.031,-10.625,0,0,0,0,0
3.032,-8.4375,0,0,0,0,0
3.033,-6.25,0,0,0,0,0
3.034,-5.5,0,0,0,0,0
3.035,-6.25,0,0,0,0,0
3.036,-6.4375,0,0,0,0,0
3.037,-6.875,0,0,0,0,0
3.038,-7.0625,0,0,0,0,0
3.039,-6.875,0,0,0,0,0
3.04,-7.125,0,0,0,0,0
3.041,-6.875,0,0,0,0,0
3.042,-6.4375,0,0,0,0,0
3.043,-6.5625,0,0,0,0,0
3.044,-7,0,0,0,0,0
3.045,-6.5625,0,0,0,0,0
3.046,-7.1875,0,0,0,0,0
3.047,-7.1875,0,0,0,0,0
3.048,-7.3125,0,0,0,0,0
3.049,-8.4375,0,0,0,0,0
3.05,-7.8125,0,0,0,0,0
3.051,-7.5,0,0,0,0,0
3.052,-6.5625,0,0,0,0,0
3.053,-6.25,0,0,0,0,0
3.054,-6.375,0,0,0,0,0
3.055,-5.9375,0,0,0,0,0
3.056,-6.25,0,0,0,0,0
3.057,-5.9375,0,0,0,0,0
3.058,-6.25,0,0,0,0,0
3.059,-6.25,0,0,0,0,0
3.06,-6.8125,0,0,0,0,0
3.061,-6.875,0,0,0,0,0
3.062,-6,0,0,0,0,0
3.063,-5,0,0,0,0,0
3.064,-5.3125,0,0,0,0,0
3.065,-5,0,0,0,0,0
3.066,-5.5625,0,0,0,0,0
3.067,-5.3125,0,0,0,0,0
3.068,-5.625,0,0,0,0,0
3.069,-5.3125,0,0,0,0,0
3.07,-5.625,0,0,0,0,0
3.071,-5.625,0,0,0,0,0
3.072,-3.9375,0,0,0,0,0
3.073,-3.4375,0,0,0,0,0
3.074,-4.1875,0,0,0,0,0
3.075,-4.0625,0,0,0,0,0
3.076,-3.75,0,0,0,0,0
3.077,-3.4375,0,0,0,0,0
3.078,-3.5625,0,0,0,0,0
3.079,-3.75,0,0,0,0,0
3.08,-2.9375,0,0,0,0,0
3.081,-2.8125,0,0,0,0,0
3.082,-2.625,0,0,0,0,0
3.083,-2.5,0,0,0,0,0
3.084,-3.4375,0,0,0,0,0
3.085,-4.0625,0,0,0,0,0
3.086,-3.3125,0,0,0,0,0
3.087,-2.8125,0,0,0,0,0
3.088,-2,0,0,0,0,0
3.089,-1.25,0,0,0,0,0
3.09,-0.75,0,0,0,0,0
3.091,-0.9375,0,0,0,0,0
3.092,-1.125,0,0,0,0,0
3.093,-1.5625,0,0,0,0,0
3.094,-2,0,0,0,0,0
3.095,-1.875,0,0,0,0,0
3.096,-1.125,0,0,0,0,0
3.097,-1.25,0,0,0,0,0
3.098,-0.625,0,0,0,0,0
3.099,-0.625,0,0,0,0,0
3.1,-1.375,0,0,0,0,0
3.101,-1.25,0,0,0,0,0
3.102,-0.3125,0,0,0,0,0
3.103,-0.625,0,0,0,0,0
3.104,-0.1875,0,0,0,0,0
3.105,0.3125,0,0,0,0,0
3.106,1.8125,0,0,0,0,0
3.107,2.8125,0,0,0,0,0
3.108,1.75,0,0,0,0,0
3.109,2.1875,0,0,0,0,0
3.11,1.25,0,0,0,0,0
3.111,0,0,0,0,0,0
3.112,-0.1875,0,0,0,0,0
3.113,0,0,0,0,0,1
3.114,-1.375,0,0,0,0,0
3.115,-2.5,0,0,0,0,0
3.116,-1.75,0,0,0,0,0
3.117,-1.875,0,0,0,0,0
3.118,-1.125,0,0,0,0,0
3.119,-1.5625,0,0,0,0,0
3.12,-1.125,0,0,0,0,0
3.121,-0.9375,0,0,0,0,0
3.122,-0.8125,0,0,0,0,0
3.123,-0.625,0,0,0,0,0
3.124,-0.75,0,0,0,0,0
3.125,-0.9375,0,0,0,0,0
3.126,-1.125,0,0,0,0,0
3.127,-1.25,0,0,0,0,0
3.128,-0.625,0,0,0,0,0
3.129,-0.625,0,0,0,0,0
3.13,-1.4375,0,0,0,0,0
3.131,-1.5625,0,0,0,0,0
3.132,-0.375,0,0,0,0,0
3.133,0.625,0,0,0,0,0
3.134,1.25,0,0,0,0,0
3.135,1.5625,0,0,0,0,0
3.136,1.6875,0,0,0,0,0
3.137,1.5625,0,0,0,0,0
3.138,0.9375,0,0,0,0,0
3.139,1.25,0,0,0,0,0
3.14,1.875,0,0,0,0,0
3.141,1.875,0,0,0,0,0
3.142,1.5625,0,0,0,0,0
3.143,1.25,0,0,0,0,0
3.144,1.625,0,0,0,0,0
3.145,0.625,0,0,0,0,0
3.146,-0.125,0,0,0,0,0
3.147,0,0,0,0,0,0
3.148,0,0,0,0,0,0
3.149,0.3125,0,0,0,0,0
3.15,1.0625,0,0,0,0,0
3.151,1.5625,0,0,0,0,0
3.152,1.5625,0,0,0,0,0
3.153,2.5,0,0,0,0,0
3.154,2.0625,0,0,0,0,0
3.155,1.875,0,0,0,0,0
3.156,1.125,0,0,0,0,0
3.157,0.3125,0,0,0,0,0
3.158,0.3125,0,0,0,0,0
3.159,0.625,0,0,0,0,0
3.16,-0.1875,0,0,0,0,0
3.161,0,0,0,0,0,0
3.162,0,0,0,0,0,0
3.163,0,0,0,0,0,0
3.164,0.125,0,0,0,0,0
3.165,0,0,0,0,0,0
3.166,0,0,0,0,0,0
3.167,0.9375,0,0,0,0,0
3.168,0.3125,0,0,0,0,0
3.169,0.3125,0,0,0,0,0
3.17,1.125,0,0,0,0,0
3.171,0.3125,0,0,0,0,0
3.172,0.3125,0,0,0,0,0
3.173,0.625,0,0,0,0,0
3.174,0.4375,0,0,0,0,0
3.175,0.625,0,0,0,0,0
3.176,0.375,0,0,0,0,0
3.177,0,0,0,0,0,0
3.178,-0.75,0,0,0,0,0
3.179,-1.875,0,0,0,0,0
3.18,-1.5625,0,0,0,0,0
3.181,-0.9375,0,0,0,0,0
3.182,-0.8125,0,0,0,0,0
3.183,-0.625,0,0,0,0,0
3.184,-1.25,0,0,0,0,0
3.185,-1.25,0,0,0,0,0
3.186,-0.75,0,0,0,0,0
3.187,0.3125,0,0,0,0,0
3.188,-0.5625,0,0,0,0,0
3.189,-0.625,0,0,0,0,0
3.19,0,0,0,0,0,0
3.191,0.625,0,0,0,0,0
3.192,0.625,0,0,0,0,0
3.193,0.9375,0,0,0,0,0
3.194,0.625,0,0,0,0,0
3.195,0,0,0,0,0,0
3.196,0.5625,0,0,0,0,0
3.197,0.3125,0,0,0,0,0
3.198,0.3125,0,0,0,0,0
3.199,0,0,0,0,0,0
3.2,0.1875,0,0,0,0,0
3.201,0,0,0,0,0,0
3.202,0.1875,0,0,0,0,0
3.203,0,0,0,0,0,0
3.204,0.3125,0,0,0,0,0
3.205,0,0,0,0,0,0
3.206,0,0,0,0,0,0
3.207,0.625,0,0,0,0,0
3.208,0.5,0,0,0,0,0
3.209,0.3125,0,0,0,0,0
3.21,0.4375,0,0,0,0,0
3.211,0,0,0,0,0,0
3.212,-0.625,0,0,0,0,0
3.213,-0.625,0,0,0,0,0
3.214,-0.125,0,0,0,0,0
3.215,0.3125,0,0,0,0,0
3.216,1.1875,0,0,0,0,0
3.217,0.9375,0,0,0,0,0
3.218,-0.1875,0,0,0,0,0
3.219,-1.25,0,0,0,0,0
3.22,-1.6875,0,0,0,0,0
3.221,-2.1875,0,0,0,0,0
3.222,-2.6875,0,0,0,0,0
3.223,-2.8125,0,0,0,0,0
3.224,-2.5625,0,0,0,0,0
3.225,-1.875,0,0,0,0,0
3.226,-1.875,0,0,0,0,0
3.227,-1.5625,0,0,0,0,0
3.228,-0.9375,0,0,0,0,0
3.229,0,0,0,0,0,0
3.23,0,0,0,0,0,0
3.231,0.3125,0,0,0,0,0
3.232,0.3125,0,0,0,0,0
3.233,0.3125,0,0,0,0,0
3.234,-1.25,0,0,0,0,0
3.235,-1.25,0,0,0,0,0
3.236,-1.5625,0,0,0,0,0
3.237,-1.875,0,0,0,0,0
3.238,-1.875,0,0,0,0,0
3.239,-0.9375,0,0,0,0,0
3.24,-0.1875,0,0,0,0,0
3.241,0.3125,0,0,0,0,0
3.242,0.9375,0,0,0,0,0
3.243,0.625,0,0,0,0,0
3.244,0.3125,0,0,0,0,0
3.245,0.625,0,0,0,0,0
3.246,-0.3125,0,0,0,0,0
3.247,-0.625,0,0,0,0,0
3.248,-1.5625,0,0,0,0,0
3.249,-2.1875,0,0,0,0,0
3.25,-1.5625,0,0,0,0,0
3.251,-1.5625,0,0,0,0,0
3.252,-1.25,0,0,0,0,0
3.253,-0.9375,0,0,0,0,0
3.254,-0.5,0,0,0,0,0
3.255,-0.625,0,0,0,0,0
3.256,-0.0625,0,0,0,0,0
3.257,0.3125,0,0,0,0,0
3.258,0,0,0,0,0,0
3.259,0.3125,0,0,0,0,0
3.26,0.125,0,0,0,0,0
3.261,0.3125,0,0,0,0,0
3.262,0.1875,0,0,0,0,0
3.263,0.3125,0,0,0,0,0
3.264,0.9375,0,0,0,0,0
3.265,0.625,0,0,0,0,0
3.266,0.3125,0,0,0,0,0
3.267,0.3125,0,0,0,0,0
3.268,-1.6875,0,0,0,0,0
3.269,-3.75,0,0,0,0,0
3.27,-3,0,0,0,0,0
3.271,-2.5,0,0,0,0,0
3.272,-2.375,0,0,0,0,0
3.273,-1.875,0,0,0,0,0
3.274,-2.1875,0,0,0,0,0
3.275,-1.875,0,0,0,0,0
3.276,-2.8125,0,0,0,0,0
3.277,-2.8125,0,0,0,0,0
3.278,-2.8125,0,0,0,0,0
3.279,-2.5,0,0,0,0,0
3.28,-1.4375,0,0,0,0,0
3.281,0,0,0,0,0,0
3.282,0.75,0,0,0,0,0
3.283,1.25,0,0,0,0,0
3.284,0.5,0,0,0,0,0
3.285,0.625,0,0,0,0,0
3.286,-0.4375,0,0,0,0,0
3.287,-0.625,0,0,0,0,0
3.288,-1.75,0,0,0,0,0
3.289,-1.25,0,0,0,0,0
3.29,-1.1875,0,0,0,0,0
3.291,-1.875,0,0,0,0,0
3.292,-1.5625,0,0,0,0,0
3.293,-1.25,0,0,0,0,0
3.294,-1.5,0,0,0,0,0
3.295,-1.875,0,0,0,0,0
3.296,-1.6875,0,0,0,0,0
3.297,-0.9375,0,0,0,0,0
3.298,-0.5,0,0,0,0,0
3.299,-0.3125,0,0,0,0,0
3.3,-0.625,0,0,0,0,0
3.301,-1.5625,0,0,0,0,0
3.302,-1.0625,0,0,0,0,0
3.303,-1.5625,0,0,0,0,0
3.304,-1,0,0,0,0,0
3.305,-0.3125,0,0,0,0,0
3.306,-0.4375,0,0,0,0,0
3.307,0,0,0,0,0,0
3.308,-0.3125,0,0,0,0,0
3.309,-0.625,0,0,0,0,0
3.31,0.0625,0,0,0,0,0
3.311,-0.625,0,0,0,0,0
3.312,-1.4375,0,0,0,0,0
3.313,-3.125,0,0,0,0,0
3.314,-1.75,0,0,0,0,0
3.315,-0.625,0,0,0,0,0
3.316,0,0,0,0,0,0
3.317,0.9375,0,0,0,0,0
3.318,-0.125,0,0,0,0,0
3.319,0.625,0,0,0,0,0
3.32,1.6875,0,0,0,0,0
3.321,2.1875,0,0,0,0,0
3.322,1.0625,0,0,0,0,0
3.323,1.5625,0,0,0,0,0
3.324,1.5625,0,0,0,0,0
3.325,1.5625,0,0,0,0,0
3.326,1.375,0,0,0,0,0
3.327,0.9375,0,0,0,0,0
3.328,1.125,0,0,0,0,0
3.329,0.9375,0,0,0,0,0
3.33,1.1875,0,0,0,0,0
3.331,0.9375,0,0,0,0,0
3.332,0.5625,0,0,0,0,0
3.333,0.625,0,0,0,0,0
3.334,0.0625,0,0,0,0,0
3.335,0.3125,0,0,0,0,0
3.336,-0.125,0,0,0,0,0
3.337,-1.25,0,0,0,0,0
3.338,-1.25,0,0,0,0,0
3.339,-1.5625,0,0,0,0,0
3.34,-1.6875,0,0,0,0,0
3.341,-1.875,0,0,0,0,0
3.342,-1.875,0,0,0,0,0
3.343,-1.875,0,0,0,0,0
3.344,-1.875,0,0,0,0,0
3.345,-1.875,0,0,0,0,0
3.346,-1.25,0,0,0,0,0
3.347,-1.875,0,0,0,0,0
3.348,-1.6875,0,0,0,0,0
3.349,-1.875,0,0,0,0,0
3.35,-1.875,0,0,0,0,0
3.351,-1.5625,0,0,0,0,0
3.352,-0.3125,0,0,0,0,0
3.353,-0.625,0,0,0,0,0
3.354,-0.625,0,0,0,0,0
3.355,0,0,0,0,0,0
3.356,0.125,0,0,0,0,0
3.357,0,0,0,0,0,0
3.358,0,0,0,0,0,0
3.359,-0.3125,0,0,0,0,0
3.36,-1.5625,0,0,0,0,0
3.361,-2.5,0,0,0,0,0
3.362,-2.75,0,0,0,0,0
3.363,-2.8125,0,0,0,0,0
3.364,-1.875,0,0,0,0,0
3.365,-1.5625,0,0,0,0,0
3.366,-2.5,0,0,0,0,0
3.367,-2.8125,0,0,0,0,0
3.368,-3.1875,0,0,0,0,0
3.369,-3.125,0,0,0,0,0
3.37,-4.1875,0,0,0,0,0
3.371,-4.6875,0,0,0,0,0
3.372,-5.125,0,0,0,0,0
3.373,-5,0,0,0,0,0
3.374,-5.5,0,0,0,0,0
3.375,-6.25,0,0,0,0,0
3.376,-5.75,0,0,0,0,0
3.377,-5.625,0,0,0,0,0
3.378,-5,0,0,0,0,0
3.379,-3.75,0,0,0,0,0
3.38,-3.5625,0,0,0,0,0
3.381,-4.0625,0,0,0,0,0
3.382,-4.8125,0,0,0,0,0
3.383,-4.375,0,0,0,0,0
3.384,-4.8125,0,0,0,0,0
3.385,-5,0,0,0,0,0
3.386,-5.3125,0,0,0,0,0
3.387,-5.625,0,0,0,0,0
3.388,-4.5,0,0,0,0,0
3.389,-3.75,0,0,0,0,0
3.39,-4.625,0,0,0,0,0
3.391,-3.75,0,0,0,0,0
3.392,-2.5625,0,0,0,0,0
3.393,-1.5625,0,0,0,0,0
3.394,-0.3125,0,0,0,0,0
3.395,0.3125,0,0,0,0,0
3.396,-1.0625,0,0,0,0,0
3.397,-2.1875,0,0,0,0,0
3.398,-2.8125,0,0,0,0,0
3.399,-3.4375,0,0,0,0,0
3.4,-2.5,0,0,0,0,0
3.401,-2.1875,0,0,0,0,0
3.402,-1.5625,0,0,0,0,0
3.403,-1.25,0,0,0,0,0
3.404,-1.6875,0,0,0,0,0
3.405,-1.25,0,0,0,0,0
3.406,-1.5625,0,0,0,0,0
3.407,-1.875,0,0,0,0,0
3.408,-1.3125,0,0,0,0,0
3.409,-0.9375,0,0,0,0,0
3.41,-1.25,0,0,0,0,0
3.411,-1.5625,0,0,0,0,0
3.412,-1.125,0,0,0,0,0
3.413,-0.625,0,0,0,0,0
3.414,-1.125,0,0,0,0,0
3.415,-1.25,0,0,0,0,0
3.416,-0.3125,0,0,0,0,0
3.417,0.3125,0,0,0,0,0
3.418,0.3125,0,0,0,0,0
3.419,0.625,0,0,0,0,0
3.42,0.1875,0,0,0,0,0
3.421,0,0,0,0,0,0
3.422,-0.3125,0,0,0,0,0
3.423,-0.3125,0,0,0,0,0
3.424,-0.125,0,0,0,0,0
3.425,0,0,0,0,0,0
3.426,-0.625,0,0,0,0,0
3.427,-0.3125,0,0,0,0,0
3.428,-0.9375,0,0,0,0,0
3.429,-1.25,0,0,0,0,0
3.43,-0.8125,0,0,0,0,0
3.431,-0.625,0,0,0,0,0
3.432,-1.0625,0,0,0,0,0
3.433,-0.9375,0,0,0,0,0
3.434,-1.375,0,0,0,0,0
3.435,-0.625,0,0,0,0,0
3.436,-0.5,0,0,0,0,0
3.437,0,0,0,0,0,0
3.438,0.75,0,0,0,0,0
3.439,0.625,0,0,0,0,0
3.44,0,0,0,0,0,0
3.441,-0.3125,0,0,0,0,0
3.442,0,0,0,0,0,0
3.443,0,0,0,0,0,0
3.444,-0.4375,0,0,0,0,0
3.445,-1.25,0,0,0,0,0
3.446,-0.875,0,0,0,0,0
3.447,-2.1875,0,0,0,0,0
3.448,-1.25,0,0,0,0,0
3.449,-1.5625,0,0,0,0,0
3.45,-1.3125,0,0,0,0,0
3.451,-1.25,0,0,0,0,0
3.452,-0.75,0,0,0,0,0
3.453,-0.625,0,0,0,0,0
3.454,-0.3125,0,0,0,0,0
3.455,-0.3125,0,0,0,0,0
3.456,-0.1875,0,0,0,0,0
3.457,0,0,0,0,0,0
3.458,-0.625,0,0,0,0,0
3.459,-0.3125,0,0,0,0,0
3.46,-0.1875,0,0,0,0,0
3.461,0,0,0,0,0,0
3.462,-0.8125,0,0,0,0,0
3.463,-1.875,0,0,0,0,0
3.464,-1.0625,0,0,0,0,0
3.465,-0.9375,0,0,0,0,0
3.466,-1.25,0,0,0,0,0
3.467,-0.9375,0,0,0,0,0
3.468,0,0,0,0,0,0
3.469,0.625,0,0,0,0,0
3.47,-0.125,0,0,0,0,0
3.471,-0.3125,0,0,0,0,0
3.472,0.625,0,0,0,0,0
3.473,0.3125,0,0,0,0,0
3.474,0.1875,0,0,0,0,0
3.475,-0.3125,0,0,0,0,0
3.476,0.4375,0,0,0,0,0
3.477,0,0,0,0,0,0
3.478,0.1875,0,0,0,0,0
3.479,-0.3125,0,0,0,0,0
3.48,-0.5625,0,0,0,0,0
3.481,-0.3125,0,0,0,0,0
3.482,-0.1875,0,0,0,0,0
3.483,0.3125,0,0,0,0,0
3.484,-0.625,0,0,0,0,0
3.485,-0.625,0,0,0,0,0
3.486,-0.1875,0,0,0,0,0
3.487,0.625,0,0,0,0,0
3.488,0.125,0,0,0,0,0
3.489,-0.3125,0,0,0,0,0
3.49,-1.0625,0,0,0,0,0
3.491,-1.875,0,0,0,0,0
3.492,-1.25,0,0,0,0,0
3.493,-0.625,0,0,0,0,0
3.494,-0.375,0,0,0,0,0
3.495,0.3125,0,0,0,0,0
3.496,1.0625,1,0,0,0,0
3.497,0,0,0,0,0,0
3.498,-0.75,0,0,0,0,0
3.499,-2.1875,0,0,0,0,0
3.5,-2.8125,0,0,0,0,0
3.501,-3.4375,0,0,0,0,0
3.502,-4.375,0,0,0,0,0
3.503,-4.0625,0,0,0,0,0
3.504,-4.875,0,0,0,0,0
3.505,-5.625,0,0,0,0,0
3.506,-6.375,0,0,0,0,0
3.507,-6.5625,0,0,0,0,0
3.508,-7.1875,0,0,0,0,0
3.509,-7.8125,0,0,0,0,0
3.51,-10,0,0,0,0,0
3.511,-11.875,0,0,0,0,0
3.512,-12.938,0,0,0,0,0
3.513,-14.063,0,0,0,0,0
3.514,-14.563,0,0,0,0,0
3.515,-15.625,0,0,0,0,0
3.516,-16.438,0,0,0,0,0
3.517,-17.5,0,0,0,0,0
3.518,-20.313,0,0,0,0,0
3.519,-22.188,0,0,0,0,0
3.52,-23.75,0,0,0,0,0
3.521,-25.938,0,0,0,0,0
3.522,-25.938,0,0,0,0,0
3.523,-25.625,0,0,0,0,0
3.524,-25.813,0,0,0,0,0
3.525,-27.188,0,0,0,0,0
3.526,-28.25,0,0,0,0,0
3.527,-28.438,0,0,0,0,0
3.528,-27.938,0,0,0,0,0
3.529,-26.25,0,0,0,0,0
3.53,-23.938,0,0,0,0,0
3.531,-20.938,0,0,0,0,0
3.532,-18.625,0,0,0,0,0
3.533,-15.938,0,0,0,0,0
3.534,-13.875,0,0,0,0,0
3.535,-10.313,0,0,0,0,0
3.536,-5.9375,0,0,0,0,0
3.537,-1.5625,0,0,0,0,0
3.538,0.8125,0,0,0,0,0
3.539,3.4375,0,0,0,0,0
3.54,7.3125,0,0,0,0,0
3.541,10.938,0,0,0,0,0
3.542,14.375,0,0,0,0,0
3.543,18.438,0,0,0,0,0
3.544,22.688,0,0,0,0,0
3.545,27.188,0,0,0,0,0
3.546,31.25,0,0,0,0,0
3.547,35,0,0,0,0,0
3.548,37.688,0,0,0,0,0
3.549,40,0,0,0,0,0
3.55,40.625,0,0,0,0,0
3.551,41.563,0,0,0,0,0
3.552,42.813,0,0,0,0,0
3.553,42.5,0,0,0,0,0
3.554,43.25,0,0,0,0,0
3.555,43.125,0,0,0,0,0
3.556,42.188,0,1,0,0,0
3.557,41.25,0,0,0,0,0
3.558,37.688,0,0,0,0,0
3.559,34.375,0,0,0,0,0
3.56,32.188,0,0,0,0,0
3.561,30.625,0,0,0,0,0
3.562,29.25,0,0,0,0,0
3.563,27.188,0,0,0,0,0
3.564,25.938,0,0,0,0,0
3.565,24.688,0,0,0,0,0
3.566,23.313,0,0,0,0,0
3.567,21.875,0,0,0,0,0
3.568,20.813,0,0,0,0,0
3.569,20.313,0,0,0,0,0
3.57,20.313,0,0,0,0,0
3.571,20.313,0,0,0,0,0
3.572,20.188,0,0,0,0,0
3.573,20,0,0,0,0,0
3.574,20.313,0,0,0,0,0
3.575,19.688,0,0,0,0,0
3.576,17.813,0,0,0,0,0
3.577,16.875,0,0,0,0,0
3.578,16.125,0,0,0,0,0
3.579,14.688,0,0,0,0,0
3.58,14.813,0,0,0,0,0
3.581,15.313,0,0,0,0,0
3.582,15.625,0,0,0,0,0
3.583,16.25,0,0,0,0,0
3.584,15.938,0,0,0,0,0
3.585,15.625,0,0,0,0,0
3.586,14.688,0,0,0,0,0
3.587,14.375,0,0,0,0,0
3.588,14.188,0,0,0,0,0
3.589,13.75,0,0,0,0,0
3.59,12.063,0,0,0,0,0
3.591,10.938,0,0,0,0,0
3.592,11.813,0,0,0,0,0
3.593,11.563,0,0,0,0,0
3.594,11.125,0,0,0,0,0
3.595,10.938,0,0,0,0,0
3.596,10.75,0,0,0,0,0
3.597,11.563,0,0,0,0,0
3.598,11.875,0,0,0,0,0
3.599,12.188,0,0,0,0,0
3.6,11.875,0,0,0,0,0
3.601,10.938,0,0,0,0,0
3.602,11.688,0,0,0,0,0
3.603,12.188,0,0,0,0,0
3.604,12.813,0,0,0,0,0
3.605,12.813,0,0,0,0,0
3.606,12.375,0,0,0,0,0
3.607,12.5,0,0,0,0,0
3.608,11.375,0,0,0,0,0
3.609,10,0,0,0,0,0
3.61,9.4375,0,0,0,0,0
3.611,9.0625,0,0,0,0,0
3.612,9.5625,0,0,0,0,0
3.613,10,0,0,0,0,0
3.614,10.563,0,0,0,0,0
3.615,11.563,0,0,0,0,0
3.616,11,0,0,0,0,0
3.617,10.313,0,0,0,0,0
3.618,10.188,0,0,0,0,0
3.619,10.938,0,0,0,0,0
3.62,11.188,0,0,0,0,0
3.621,11.25,0,0,0,0,0
3.622,10.625,0,0,0,0,0
3.623,10,0,0,0,0,0
3.624,9.375,0,0,0,0,0
3.625,8.4375,0,0,0,0,0
3.626,9.3125,0,0,0,0,0
3.627,9.0625,0,0,0,0,0
3.628,7.9375,0,0,0,0,0
3.629,7.1875,0,0,0,0,0
3.63,6.4375,0,0,0,0,0
3.631,5.9375,0,0,0,0,0
3.632,5.125,0,0,0,0,0
3.633,4.375,0,0,0,0,0
3.634,5,0,0,0,0,0
3.635,4.6875,0,0,0,0,0
3.636,4.625,0,0,0,0,0
3.637,4.375,0,0,0,0,0
3.638,4.0625,0,0,0,0,0
3.639,3.75,0,0,0,0,0
3.64,3.125,0,0,0,0,0
3.641,1.875,0,0,0,0,0
3.642,1.875,0,0,0,0,0
3.643,1.875,0,0,0,0,0
3.644,2.125,0,0,0,0,0
3.645,2.1875,0,0,0,0,0
3.646,2.1875,0,0,0,0,0
3.647,1.875,0,0,0,0,0
3.648,1.4375,0,0,0,0,0
3.649,0.9375,0,0,0,0,0
3.65,1.1875,0,0,0,0,0
3.651,1.25,0,0,0,0,0
3.652,1.25,0,0,0,0,0
3.653,2.1875,0,0,0,0,0
3.654,1.375,0,0,0,0,0
3.655,0.9375,0,0,0,0,0
3.656,0.5,0,0,0,0,0
3.657,1.25,0,0,0,0,0
3.658,0.9375,0,0,1,0,0
3.659,0.9375,0,0,0,0,0
3.66,0.625,0,0,0,0,0
3.661,-0.625,0,0,0,0,0
3.662,-1.0625,0,0,0,0,0
3.663,0,0,0,0,0,0
3.664,0,0,0,0,0,0
3.665,-0.3125,0,0,0,0,0
3.666,-0.1875,0,0,0,0,0
3.667,-0.625,0,0,0,0,0
3.668,-0.1875,0,0,0,0,0
3.669,0,0,0,0,0,0
3.67,0.125,0,0,0,0,0
3.671,1.25,0,0,0,0,0
3.672,0.5,0,0,0,0,0
3.673,-0.3125,0,0,0,0,0
3.674,-0.625,0,0,0,0,0
3.675,-1.5625,0,0,0,0,0
3.676,-1.25,0,0,0,0,0
3.677,-1.25,0,0,0,0,0
3.678,-1.25,0,0,0,0,0
3.679,-0.3125,0,0,0,0,0
3.68,-0.3125,0,0,0,0,0
3.681,-0.625,0,0,0,0,0
3.682,-1.0625,0,0,0,0,0
3.683,-0.9375,0,0,0,0,0
3.684,-1.125,0,0,0,0,0
3.685,-1.25,0,0,0,0,0
3.686,-2,0,0,0,0,0
3.687,-1.5625,0,0,0,0,0
3.688,-1.8125,0,0,0,0,0
3.689,-1.875,0,0,0,0,0
3.69,-2,0,0,0,0,0
3.691,-2.1875,0,0,0,0,0
3.692,-1.75,0,0,0,0,0
3.693,-1.875,0,0,0,0,0
3.694,-1.6875,0,0,0,0,0
3.695,-1.875,0,0,0,0,0
3.696,-2.375,0,0,0,0,0
3.697,-2.8125,0,0,0,0,0
3.698,-3.125,0,0,0,0,0
3.699,-2.5,0,0,0,0,0
3.7,-1.625,0,0,0,0,0
3.701,-1.5625,0,0,0,0,0
3.702,-1.5625,0,0,0,0,0
3.703,-2.1875,0,0,0,0,0
3.704,-1.375,0,0,0,0,0
3.705,0,0,0,0,0,0
3.706,-0.75,0,0,0,0,0
3.707,-0.3125,0,0,0,0,0
3.708,0,0,0,0,0,0
3.709,0,0,0,0,0,0
3.71,-0.8125,0,0,0,0,0
3.711,-2.1875,0,0,0,0,0
3.712,-2,0,0,0,0,0
3.713,-2.8125,0,0,0,0,0
3.714,-2.9375,0,0,0,0,0
3.715,-3.4375,0,0,0,0,0
3.716,-3,0,0,0,0,0
3.717,-2.1875,0,0,0,0,0
3.718,-2.1875,0,0,0,0,0
3.719,-1.5625,0,0,0,0,0
3.72,-1.75,0,0,0,0,0
3.721,-1.25,0,0,0,0,0
3.722,-1.5625,0,0,0,0,0
3.723,-2.1875,0,0,0,0,0
3.724,-1.625,0,0,0,0,0
3.725,-1.5625,0,0,0,0,0
3.726,-1.125,0,0,0,0,0
3.727,-0.9375,0,0,0,0,0
3.728,-0.6875,0,0,0,0,0
3.729,-0.3125,0,0,0,0,0
3.73,-0.9375,0,0,0,0,0
3.731,-1.875,0,0,0,0,0
3.732,-2.1875,0,0,0,0,0
3.733,-2.5,0,0,0,0,0
3.734,-2.1875,0,0,0,0,0
3.735,-1.5625,0,0,0,0,0
3.736,-1.875,0,0,0,0,0
3.737,-1.5625,0,0,0,0,0
3.738,-2.8125,0,0,0,0,0
3.739,-5,0,0,0,0,0
3.74,-5.75,0,0,0,0,0
3.741,-5.3125,0,0,0,0,0
3.742,-5.125,0,0,0,0,0
3.743,-4.0625,0,0,0,0,0
3.744,-3.3125,0,0,0,0,0
3.745,-1.875,0,0,0,0,0
3.746,-1.25,0,0,0,0,0
3.747,-0.625,0,0,0,0,0
3.748,-1.8125,0,0,0,0,0
3.749,-2.1875,0,0,0,0,0
3.75,-3.125,0,0,0,0,0
3.751,-2.8125,0,0,0,0,0
3.752,-3.125,0,0,0,0,0
3.753,-3.125,0,0,0,0,0
3.754,-2.8125,0,0,0,0,0
3.755,-2.5,0,0,0,0,0
3.756,-3,0,0,0,0,0
3.757,-2.5,0,0,0,0,0
3.758,-2.6875,0,0,0,0,0
3.759,-3.4375,0,0,0,0,0
3.76,-5.125,0,0,0,0,0
3.761,-6.5625,0,0,0,0,0
3.762,-6.4375,0,0,0,0,0
3.763,-6.5625,0,0,0,0,0
3.764,-5.375,0,0,0,0,0
3.765,-4.375,0,0,0,0,0
3.766,-4.0625,0,0,0,0,0
3.767,-4.0625,0,0,0,0,0
3.768,-3.875,0,0,0,0,0
3.769,-3.75,0,0,0,0,0
3.77,-3.625,0,0,0,0,0
3.771,-3.4375,0,0,0,0,0
3.772,-3.875,0,0,0,0,0
3.773,-4.375,0,0,0,0,0
3.774,-5.125,0,0,0,0,0
3.775,-5.625,0,0,0,0,0
3.776,-5.0625,0,0,0,0,0
3.777,-5,0,0,0,0,0
3.778,-4.75,0,0,0,0,0
3.779,-4.375,0,0,0,0,0
3.78,-4.3125,0,0,0,0,0
3.781,-6.25,0,0,0,0,0
3.782,-6.125,0,0,0,0,0
3.783,-6.5625,0,0,0,0,0
3.784,-6.25,0,0,0,0,0
3.785,-5.9375,0,0,0,0,0
3.786,-4.0625,0,0,0,0,0
3.787,-4.0625,0,0,0,0,0
3.788,-3.875,0,0,0,0,0
3.789,-4.6875,0,0,0,0,0
3.79,-6.4375,0,0,0,0,0
3.791,-6.875,0,0,0,0,0
3.792,-6.75,0,0,0,0,0
3.793,-6.5625,0,0,0,0,0
3.794,-6.5625,0,0,0,0,0
3.795,-6.5625,0,0,0,0,0
3.796,-5.8125,0,0,0,0,0
3.797,-5.3125,0,0,0,0,0
3.798,-6.0625,0,0,0,0,0
3.799,-6.875,0,0,0,0,0
3.8,-7.1875,0,0,0,0,0
3.801,-7.5,0,0,0,0,0
3.802,-7.1875,0,0,0,0,0
3.803,-7.1875,0,0,0,0,0
3.804,-7.4375,0,0,0,0,0
3.805,-7.5,0,0,0,0,0
3.806,-6.875,0,0,0,0,0
3.807,-7.1875,0,0,0,0,0
3.808,-7.1875,0,0,0,1,0
3.809,-7.1875,0,0,0,0,0
3.81,-7.0625,0,0,0,0,0
3.811,-7.5,0,0,0,0,0
3.812,-7.75,0,0,0,0,0
3.813,-7.8125,0,0,0,0,0
3.814,-8,0,0,0,0,0
3.815,-7.5,0,0,0,0,0
3.816,-7.6875,0,0,0,0,0
3.817,-7.1875,0,0,0,0,0
3.818,-6.5625,0,0,0,0,0
3.819,-6.875,0,0,0,0,0
3.82,-6.9375,0,0,0,0,0
3.821,-5.9375,0,0,0,0,0
3.822,-5.6875,0,0,0,0,0
3.823,-5.625,0,0,0,0,0
3.824,-6.75,0,0,0,0,0
3.825,-6.875,0,0,0,0,0
3.826,-7.4375,0,0,0,0,0
3.827,-7.5,0,0,0,0,0
3.828,-7.3125,0,0,0,0,0
3.829,-7.8125,0,0,0,0,0
3.83,-7.6875,0,0,0,0,0
3.831,-7.5,0,0,0,0,0
3.832,-7.875,0,0,0,0,0
3.833,-7.5,0,0,0,0,0
3.834,-7.1875,0,0,0,0,0
3.835,-6.5625,0,0,0,0,0
3.836,-7.3125,0,0,0,0,0
3.837,-7.1875,0,0,0,0,0
3.838,-7.5,0,0,0,0,0
3.839,-7.5,0,0,0,0,0
3.84,-6.5625,0,0,0,0,0
3.841,-5.9375,0,0,0,0,0
3.842,-6.4375,0,0,0,0,0
3.843,-6.5625,0,0,0,0,0
3.844,-5.9375,0,0,0,0,0
3.845,-6.25,0,0,0,0,0
3.846,-6.25,0,0,0,0,0
3.847,-6.5625,0,0,0,0,0
3.848,-5.75,0,0,0,0,0
3.849,-4.375,0,0,0,0,0
3.85,-4.5625,0,0,0,0,0
3.851,-4.0625,0,0,0,0,0
3.852,-3.875,0,0,0,0,0
3.853,-3.75,0,0,0,0,0
3.854,-4.0625,0,0,0,0,0
3.855,-4.375,0,0,0,0,0
3.856,-3.1875,0,0,0,0,0
3.857,-3.4375,0,0,0,0,0
3.858,-4.0625,0,0,0,0,0
3.859,-5,0,0,0,0,0
3.86,-4.5,0,0,0,0,0
3.861,-4.0625,0,0,0,0,0
3.862,-2.8125,0,0,0,0,0
3.863,-3.125,0,0,0,0,0
3.864,-3.375,0,0,0,0,0
3.865,-3.4375,0,0,0,0,0
3.866,-3.125,0,0,0,0,0
3.867,-3.4375,0,0,0,0,0
3.868,-2.0625,0,0,0,0,0
3.869,-1.5625,0,0,0,0,0
3.87,-3.25,0,0,0,0,0
3.871,-4.375,0,0,0,0,0
3.872,-3.75,0,0,0,0,0
3.873,-3.125,0,0,0,0,0
3.874,-2.9375,0,0,0,0,0
3.875,-3.125,0,0,0,0,0
3.876,-2.0625,0,0,0,0,0
3.877,-1.5625,0,0,0,0,0
3.878,0.125,0,0,0,0,0
3.879,-0.3125,0,0,0,0,0
3.88,-0.75,0,0,0,0,0
3.881,-0.9375,0,0,0,0,0
3.882,-1.5,0,0,0,0,0
3.883,-1.5625,0,0,0,0,0
3.884,-1.125,0,0,0,0,0
3.885,-1.5625,0,0,0,0,0
3.886,-0.9375,0,0,0,0,0
3.887,-0.3125,0,0,0,0,0
3.888,-0.3125,0,0,0,0,0
3.889,0.3125,0,0,0,0,0
3.89,0.625,0,0,0,0,0
3.891,1.5625,0,0,0,0,0
3.892,0.8125,0,0,0,0,0
3.893,0.9375,0,0,0,0,0
3.894,-0.125,0,0,0,0,0
3.895,-1.875,0,0,0,0,0
3.896,-2,0,0,0,0,0
3.897,-2.5,0,0,0,0,0
3.898,-2.1875,0,0,0,0,0
3.899,-2.1875,0,0,0,0,0
3.9,-0.1875,0,0,0,0,0
3.901,0.3125,0,0,0,0,0
3.902,1.1875,0,0,0,0,0
3.903,2.5,0,0,0,0,0
3.904,2.5,0,0,0,0,0
3.905,3.4375,0,0,0,0,1
3.906,1.9375,0,0,0,0,0
3.907,1.25,0,0,0,0,0
3.908,0.8125,0,0,0,0,0
3.909,0,0,0,0,0,0
3.91,0.625,0,0,0,0,0
3.911,0.3125,0,0,0,0,0
3.912,0.75,0,0,0,0,0
3.913,0.9375,0,0,0,0,0
3.914,1.125,0,0,0,0,0
3.915,1.25,0,0,0,0,0
3.916,0.625,0,0,0,0,0
3.917,0.625,0,0,0,0,0
3.918,0.5,0,0,0,0,0
3.919,0,0,0,0,0,0
3.92,0.4375,0,0,0,0,0
3.921,0.625,0,0,0,0,0
3.922,1.875,0,0,0,0,0
3.923,2.8125,0,0,0,0,0
3.924,1.5625,0,0,0,0,0
3.925,1.25,0,0,0,0,0
3.926,0.6875,0,0,0,0,0
3.927,0.625,0,0,0,0,0
3.928,0.75,0,0,0,0,0
3.929,0.9375,0,0,0,0,0
3.93,0.8125,0,0,0,0,0
3.931,0.9375,0,0,0,0,0
3.932,0.8125,0,0,0,0,0
3.933,0.625,0,0,0,0,0
3.934,0.4375,0,0,0,0,0
3.935,0.9375,0,0,0,0,0
3.936,1.6875,0,0,0,0,0
3.937,2.1875,0,0,0,0,0
3.938,1.75,0,0,0,0,0
3.939,1.25,0,0,0,0,0
3.94,1.375,0,0,0,0,0
3.941,1.5625,0,0,0,0,0
3.942,0.9375,0,0,0,0,0
3.943,1.25,0,0,0,0,0
3.944,2.125,0,0,0,0,0
3.945,1.875,0,0,0,0,0
3.946,2,0,0,0,0,0
3.947,2.5,0,0,0,0,0
3.948,1.875,0,0,0,0,0
3.949,2.1875,0,0,0,0,0
3.95,1.3125,0,0,0,0,0
3.951,1.5625,0,0,0,0,0
3.952,0.9375,0,0,0,0,0
3.953,0.3125,0,0,0,0,0
3.954,0.875,0,0,0,0,0
3.955,0.9375,0,0,0,0,0
3.956,0.5,0,0,0,0,0
3.957,1.25,0,0,0,0,0
3.958,2.5,0,0,0,0,0
3.959,2.8125,0,0,0,0,0
3.96,2.1875,0,0,0,0,0
3.961,1.5625,0,0,0,0,0
3.962,0.9375,0,0,0,0,0
3.963,0.625,0,0,0,0,0
3.964,0,0,0,0,0,0
3.965,0.9375,0,0,0,0,0
3.966,1.125,0,0,0,0,0
3.967,1.5625,0,0,0,0,0
3.968,1.125,0,0,0,0,0
3.969,0,0,0,0,0,0
3.97,-0.1875,0,0,0,0,0
3.971,0,0,0,0,0,0
3.972,-0.4375,0,0,0,0,0
3.973,-0.3125,0,0,0,0,0
3.974,-1.5625,0,0,0,0,0
3.975,-2.1875,0,0,0,0,0
3.976,-1.125,0,0,0,0,0
3.977,-1.25,0,0,0,0,0
3.978,-1.75,0,0,0,0,0
3.979,-0.625,0,0,0,0,0
3.98,-0.4375,0,0,0,0,0
3.981,0,0,0,0,0,0
3.982,0.125,0,0,0,0,0
3.983,1.25,0,0,0,0,0
3.984,1.125,0,0,0,0,0
3.985,1.25,0,0,0,0,0
3.986,1.375,0,0,0,0,0
3.987,1.5625,0,0,0,0,0
3.988,0,0,0,0,0,0
3.989,0.3125,0,0,0,0,0
3.99,-0.25,0,0,0,0,0
3.991,-0.9375,0,0,0,0,0
3.992,-0.75,0,0,0,0,0
3.993,-0.3125,0,0,0,0,0
3.994,0.125,0,0,0,0,0
3.995,1.5625,0,0,0,0,0
3.996,1.4375,0,0,0,0,0
3.997,1.25,0,0,0,0,0
3.998,0.9375,0,0,0,0,0
3.999,0.3125,0,0,0,0,0
4,-0.75,0,0,0,0,0
4.001,-1.875,0,0,0,0,0
4.002,-1.5625,0,0,0,0,0
4.003,-1.25,0,0,0,0,0
4.004,-1.25,0,0,0,0,0
4.005,-0.9375,0,0,0,0,0
4.006,0,0,0,0,0,0
4.007,0.9375,0,0,0,0,0
4.008,1.25,0,0,0,0,0
4.009,0.625,0,0,0,0,0
4.01,-0.125,0,0,0,0,0
4.011,-1.25,0,0,0,0,0
4.012,-1.75,0,0,0,0,0
4.013,-2.1875,0,0,0,0,0
4.014,-2.625,0,0,0,0,0
4.015,-2.5,0,0,0,0,0
4.016,-2,0,0,0,0,0
4.017,-2.5,0,0,0,0,0
4.018,-1.75,0,0,0,0,0
4.019,-1.25,0,0,0,0,0
4.02,-1.5625,0,0,0,0,0
4.021,-1.5625,0,0,0,0,0
4.022,-1.25,0,0,0,0,0
4.023,-0.9375,0,0,0,0,0
4.024,-0.6875,0,0,0,0,0
4.025,-0.3125,0,0,0,0,0
4.026,-0.625,0,0,0,0,0
4.027,-1.25,0,0,0,0,0
4.028,-0.4375,0,0,0,0,0
4.029,-0.625,0,0,0,0,0
4.03,-0.1875,0,0,0,0,0
4.031,0,0,0,0,0,0
4.032,-0.4375,0,0,0,0,0
4.033,-0.625,0,0,0,0,0
4.034,-1.0625,0,0,0,0,0
4.035,-1.5625,0,0,0,0,0
4.036,-1.875,0,0,0,0,0
4.037,-1.25,0,0,0,0,0
4.038,-0.9375,0,0,0,0,0
4.039,0.3125,0,0,0,0,0
4.04,-0.0625,0,0,0,0,0
4.041,0.625,0,0,0,0,0
4.042,0.8125,0,0,0,0,0
4.043,0.625,0,0,0,0,0
4.044,0.375,0,0,0,0,0
4.045,0.3125,0,0,0,0,0
4.046,-0.1875,0,0,0,0,0
4.047,-0.625,0,0,0,0,0
4.048,-2.1875,0,0,0,0,0
4.049,-3.4375,0,0,0,0,0
4.05,-2.875,0,0,0,0,0
4.051,-1.875,0,0,0,0,0
4.052,-1.4375,0,0,0,0,0
4.053,-0.625,0,0,0,0,0
4.054,-0.3125,0,0,0,0,0
4.055,-0.3125,0,0,0,0,0
4.056,-1.375,0,0,0,0,0
4.057,-0.9375,0,0,0,0,0
4.058,-0.75,0,0,0,0,0
4.059,-0.625,0,0,0,0,0
4.06,-0.625,0,0,0,0,0
4.061,0,0,0,0,0,0
4.062,0.625,0,0,0,0,0
4.063,0.9375,0,0,0,0,0
4.064,0.4375,0,0,0,0,0
4.065,0.625,0,0,0,0,0
4.066,1.25,0,0,0,0,0
4.067,0.3125,0,0,0,0,0
4.068,-0.125,0,0,0,0,0
4.069,-0.3125,0,0,0,0,0
4.07,-0.3125,0,0,0,0,0
4.071,-0.625,0,0,0,0,0
4.072,-1.5,0,0,0,0,0
4.073,-1.25,0,0,0,0,0
4.074,-1.5625,0,0,0,0,0
4.075,-0.9375,0,0,0,0,0
4.076,-2.375,0,0,0,0,0
4.077,-2.1875,0,0,0,0,0
4.078,-0.8125,0,0,0,0,0
4.079,0,0,0,0,0,0
4.08,0.1875,0,0,0,0,0
4.081,0.3125,0,0,0,0,0
4.082,0.1875,0,0,0,0,0
4.083,0,0,0,0,0,0
4.084,-0.125,0,0,0,0,0
4.085,0.3125,0,0,0,0,0
4.086,0.75,0,0,0,0,0
4.087,0.9375,0,0,0,0,0
4.088,1.25,0,0,0,0,0
4.089,0.9375,0,0,0,0,0
4.09,1.25,0,0,0,0,0
4.091,0.625,0,0,0,0,0
4.092,0.6875,0,0,0,0,0
4.093,0.625,0,0,0,0,0
4.094,-0.125,0,0,0,0,0
4.095,-0.3125,0,0,0,0,0
4.096,-1.0625,0,0,0,0,0
4.097,-1.875,0,0,0,0,0
4.098,-0.4375,0,0,0,0,0
4.099,-0.3125,0,0,0,0,0
4.1,0.3125,0,0,0,0,0
4.101,0,0,0,0,0,0
4.102,0.8125,0,0,0,0,0
4.103,1.25,0,0,0,0,0
4.104,0.5,0,0,0,0,0
4.105,0,0,0,0,0,0
4.106,-1.25,0,0,0,0,0
4.107,-0.625,0,0,0,0,0
4.108,0.625,0,0,0,0,0
4.109,1.25,0,0,0,0,0
4.11,0.75,0,0,0,0,0
4.111,1.875,0,0,0,0,0
4.112,2.1875,0,0,0,0,0
4.113,2.5,0,0,0,0,0
4.114,2.5,0,0,0,0,0
4.115,2.1875,0,0,0,0,0
4.116,2.5,0,0,0,0,0
4.117,2.5,0,0,0,0,0
4.118,2.375,0,0,0,0,0
4.119,1.5625,0,0,0,0,0
4.12,0.9375,0,0,0,0,0
4.121,0.625,0,0,0,0,0
4.122,0.3125,0,0,0,0,0
4.123,0.9375,0,0,0,0,0
4.124,0.3125,0,0,0,0,0
4.125,-0.9375,0,0,0,0,0
4.126,-0.9375,0,0,0,0,0
4.127,-1.25,0,0,0,0,0
4.128,-1.5625,0,0,0,0,0
4.129,-1.875,0,0,0,0,0
4.13,-1.875,0,0,0,0,0
4.131,-1.875,0,0,0,0,0
4.132,-1.5625,0,0,0,0,0
4.133,-1.25,0,0,0,0,0
4.134,-0.5,0,0,0,0,0
4.135,-0.9375,0,0,0,0,0
4.136,-1.0625,0,0,0,0,0
4.137,-1.5625,0,0,0,0,0
4.138,-1.8125,0,0,0,0,0
4.139,-1.875,0,0,0,0,0
4.14,-0.5,0,0,0,0,0
4.141,-0.625,0,0,0,0,0
4.142,-1.8125,0,0,0,0,0
4.143,-2.5,0,0,0,0,0
4.144,-2.375,0,0,0,0,0
4.145,-2.5,0,0,0,0,0
4.146,-2.375,0,0,0,0,0
4.147,-2.5,0,0,0,0,0
4.148,-2.375,0,0,0,0,0
4.149,-1.875,0,0,0,0,0
4.15,-2.625,0,0,0,0,0
4.151,-3.125,0,0,0,0,0
4.152,-2.5,0,0,0,0,0
4.153,-2.5,0,0,0,0,0
4.154,-1.875,0,0,0,0,0
4.155,-0.625,0,0,0,0,0
4.156,-1.125,0,0,0,0,0
4.157,-1.25,0,0,0,0,0
4.158,-1.375,0,0,0,0,0
4.159,-0.9375,0,0,0,0,0
4.16,-1.25,0,0,0,0,0
4.161,-0.9375,0,0,0,0,0
4.162,-0.9375,0,0,0,0,0
4.163,-1.25,0,0,0,0,0
4.164,-1.375,0,0,0,0,0
4.165,-1.875,0,0,0,0,0
4.166,-2,0,0,0,0,0
4.167,-1.5625,0,0,0,0,0
4.168,-1.5625,0,0,0,0,0
4.169,-2.1875,0,0,0,0,0
4.17,-4.0625,0,0,0,0,0
4.171,-4.6875,0,0,0,0,0
4.172,-4.25,0,0,0,0,0
4.173,-3.4375,0,0,0,0,0
4.174,-3.3125,0,0,0,0,0
4.175,-3.125,0,0,0,0,0
4.176,-2.5,0,0,0,0,0
4.177,-2.1875,0,0,0,0,0
4.178,-3.3125,0,0,0,0,0
4.179,-2.5,0,0,0,0,0
4.18,-2.9375,0,0,0,0,0
4.181,-3.75,0,0,0,0,0
4.182,-4.1875,0,0,0,0,0
4.183,-5.3125,0,0,0,0,0
4.184,-5.1875,0,0,0,0,0
4.185,-4.6875,0,0,0,0,0
4.186,-3.625,0,0,0,0,0
4.187,-2.5,0,0,0,0,0
4.188,-2.0625,0,0,0,0,0
4.189,-2.1875,0,0,0,0,0
4.19,-1.5625,0,0,0,0,0
4.191,-1.25,0,0,0,0,0
4.192,-1.125,0,0,0,0,0
4.193,0,0,0,0,0,0
4.194,-0.0625,0,0,0,0,0
4.195,0,0,0,0,0,0
4.196,0.625,0,0,0,0,0
4.197,0.9375,0,0,0,0,0
4.198,0.625,0,0,0,0,0
4.199,0.3125,0,0,0,0,0
4.2,0.3125,0,0,0,0,0
4.201,0.3125,0,0,0,0,0
4.202,0.3125,0,0,0,0,0
4.203,0.625,0,0,0,0,0
4.204,0.625,0,0,0,0,0
4.205,0.3125,0,0,0,0,0
4.206,-0.75,0,0,0,0,0
4.207,-1.5625,0,0,0,0,0
4.208,-1.75,0,0,0,0,0
4.209,-1.5625,0,0,0,0,0
4.21,-1.3125,0,0,0,0,0
4.211,-0.625,0,0,0,0,0
4.212,-0.1875,0,0,0,0,0
4.213,0.3125,0,0,0,0,0
4.214,0.125,0,0,0,0,0
4.215,0.9375,0,0,0,0,0
4.216,0.3125,0,0,0,0,0
4.217,0,0,0,0,0,0
4.218,-0.3125,0,0,0,0,0
4.219,-0.9375,0,0,0,0,0
4.22,-1.75,0,0,0,0,0
4.221,-1.875,0,0,0,0,0
4.222,-1.9375,0,0,0,0,0
4.223,-0.625,0,0,0,0,0
4.224,-0.75,0,0,0,0,0
4.225,-0.625,0,0,0,0,0
4.226,-0.625,0,0,0,0,0
4.227,-1.5625,0,0,0,0,0
4.228,-1.75,0,0,0,0,0
4.229,-1.5625,0,0,0,0,0
4.23,-1.125,0,0,0,0,0
4.231,-0.9375,0,0,0,0,0
4.232,-0.9375,0,0,0,0,0
4.233,-1.25,0,0,0,0,0
4.234,-0.5625,0,0,0,0,0
4.235,-1.5625,0,0,0,0,0
4.236,-0.5,0,0,0,0,0
4.237,-0.625,0,0,0,0,0
4.238,-1.0625,0,0,0,0,0
4.239,-1.875,0,0,0,0,0
4.24,-1.3125,0,0,0,0,0
4.241,-0.9375,0,0,0,0,0
4.242,-1.25,0,0,0,0,0
4.243,-1.875,0,0,0,0,0
4.244,-0.625,0,0,0,0,0
4.245,0.625,0,0,0,0,0
4.246,0.1875,0,0,0,0,0
4.247,0.625,0,0,0,0,0
4.248,0.8125,0,0,0,0,0
4.249,0.9375,0,0,0,0,0
4.25,1.125,0,0,0,0,0
4.251,0.9375,0,0,0,0,0
4.252,2,0,0,0,0,0
4.253,2.5,0,0,0,0,0
4.254,2.8125,0,0,0,0,0
4.255,3.75,0,0,0,0,0
4.256,4.1875,0,0,0,0,0
4.257,4.375,0,0,0,0,0
4.258,3.625,0,0,0,0,0
4.259,3.4375,0,0,0,0,0
4.26,2.625,0,0,0,0,0
4.261,0.625,0,0,0,0,0
4.262,-0.125,0,0,0,0,0
4.263,-1.25,0,0,0,0,0
4.264,-0.75,0,0,0,0,0
4.265,-1.5625,0,0,0,0,0
4.266,-0.8125,0,0,0,0,0
4.267,-0.625,0,0,0,0,0
4.268,-0.8125,0,0,0,0,0
4.269,-0.3125,0,0,0,0,0
4.27,-0.9375,0,0,0,0,0
4.271,-1.25,0,0,0,0,0
4.272,-2.6875,0,0,0,0,0
4.273,-3.125,0,0,0,0,0
4.274,-2.8125,0,0,0,0,0
4.275,-2.1875,0,0,0,0,0
4.276,-1.875,0,0,0,0,0
4.277,-1.5625,0,0,0,0,0
4.278,-1.375,0,0,0,0,0
4.279,-1.25,0,0,0,0,0
4.28,-1.125,0,0,0,0,0
4.281,-0.9375,1,0,0,0,0
4.282,-1.0625,0,0,0,0,0
4.283,-0.9375,0,0,0,0,0
4.284,0.3125,0,0,0,0,0
4.285,-0.3125,0,0,0,0,0
4.286,-1.1875,0,0,0,0,0
4.287,-2.8125,0,0,0,0,0
4.288,-4.0625,0,0,0,0,0
4.289,-5.3125,0,0,0,0,0
4.29,-6.25,0,0,0,0,0
4.291,-5.9375,0,0,0,0,0
4.292,-6.875,0,0,0,0,0
4.293,-7.8125,0,0,0,0,0
4.294,-9.1875,0,0,0,0,0
4.295,-10,0,0,0,0,0
4.296,-10.938,0,0,0,0,0
4.297,-11.875,0,0,0,0,0
4.298,-12.375,0,0,0,0,0
4.299,-12.5,0,0,0,0,0
4.3,-13.313,0,0,0,0,0
4.301,-14.063,0,0,0,0,0
4.302,-15.125,0,0,0,0,0
4.303,-16.875,0,0,0,0,0
4.304,-18,0,0,0,0,0
4.305,-19.375,0,0,0,0,0
4.306,-21.563,0,0,0,0,0
4.307,-22.813,0,0,0,0,0
4.308,-23.625,0,0,0,0,0
4.309,-25,0,0,0,0,0
4.31,-26.25,0,0,0,0,0
4.311,-27.188,0,0,0,0,0
4.312,-27.5,0,0,0,0,0
4.313,-29.063,0,0,0,0,0
4.314,-28.75,0,0,0,0,0
4.315,-27.5,0,0,0,0,0
4.316,-25.938,0,0,0,0,0
4.317,-23.125,0,0,0,0,0
4.318,-19.875,0,0,0,0,0
4.319,-15.938,0,0,0,0,0
4.32,-14.375,0,0,0,0,0
4.321,-12.5,0,0,0,0,0
4.322,-10.938,0,0,0,0,0
4.323,-7.8125,0,0,0,0,0
4.324,-4.5,0,0,0,0,0
4.325,-1.25,0,0,0,0,0
4.326,2,0,0,0,0,0
4.327,5.625,0,0,0,0,0
4.328,10.438,0,0,0,0,0
4.329,15,0,0,0,0,0
4.33,18.75,0,0,0,0,0
4.331,23.125,0,0,0,0,0
4.332,26.125,0,0,0,0,0
4.333,29.375,0,0,0,0,0
4.334,33.438,0,0,0,0,0
4.335,37.188,0,0,0,0,0
4.336,40.75,0,0,0,0,0
4.337,44.063,0,0,0,0,0
4.338,44.875,0,0,0,0,0
4.339,45.938,0,0,0,0,0
4.34,46.938,0,1,0,0,0
4.341,46.25,0,0,0,0,0
4.342,46.125,0,0,0,0,0
4.343,45,0,0,0,0,0
4.344,43.125,0,0,0,0,0
4.345,41.25,0,0,0,0,0
4.346,38.438,0,0,0,0,0
4.347,35.938,0,0,0,0,0
4.348,33.313,0,0,0,0,0
4.349,31.25,0,0,0,0,0
4.35,29.875,0,0,0,0,0
4.351,27.813,0,0,0,0,0
4.352,26.563,0,0,0,0,0
4.353,25.313,0,0,0,0,0
4.354,24.938,0,0,0,0,0
4.355,24.688,0,0,0,0,0
4.356,23.5,0,0,0,0,0
4.357,22.813,0,0,0,0,0
4.358,22.813,0,0,0,0,0
4.359,22.813,0,0,0,0,0
4.36,22.5,0,0,0,0,0
4.361,22.188,0,0,0,0,0
4.362,22.625,0,0,0,0,0
4.363,22.188,0,0,0,0,0
4.364,20.688,0,0,0,0,0
4.365,20,0,0,0,0,0
4.366,19.563,0,0,0,0,0
4.367,18.438,0,0,0,0,0
4.368,17.375,0,0,0,0,0
4.369,16.563,0,0,0,0,0
4.37,16.063,0,0,0,0,0
4.371,15.938,0,0,0,0,0
4.372,15.813,0,0,0,0,0
4.373,15.625,0,0,0,0,0
4.374,14.563,0,0,0,0,0
4.375,14.063,0,0,0,0,0
4.376,13.5,0,0,0,0,0
4.377,12.5,0,0,0,0,0
4.378,11.375,0,0,0,0,0
4.379,10.938,0,0,0,0,0
4.38,11.5,0,0,0,0,0
4.381,10.938,0,0,0,0,0
4.382,10.625,0,0,0,0,0
4.383,10.625,0,0,0,0,0
4.384,10.125,0,0,0,0,0
4.385,10.625,0,0,0,0,0
4.386,11.25,0,0,0,0,0
4.387,11.875,0,0,0,0,0
4.388,12.188,0,0,0,0,0
4.389,11.875,0,0,0,0,0
4.39,11.438,0,0,0,0,0
4.391,10.625,0,0,0,0,0
4.392,10.813,0,0,0,0,0
4.393,10.313,0,0,0,0,0
4.394,10.625,0,0,0,0,0
4.395,11.563,0,0,0,0,0
4.396,11.813,0,0,0,0,0
4.397,11.875,0,0,0,0,0
4.398,11.563,0,0,0,0,0
4.399,11.563,0,0,0,0,0
4.4,11.438,0,0,0,0,0
4.401,11.25,0,0,0,0,0
4.402,11.563,0,0,0,0,0
4.403,12.188,0,0,0,0,0
4.404,12.5,0,0,0,0,0
4.405,12.813,0,0,0,0,0
4.406,12.188,0,0,0,0,0
4.407,12.5,0,0,0,0,0
4.408,11.563,0,0,0,0,0
4.409,10.313,0,0,0,0,0
4.41,10.25,0,0,0,0,0
4.411,10.313,0,0,0,0,0
4.412,10,0,0,0,0,0
4.413,9.375,0,0,0,0,0
4.414,9.375,0,0,0,0,0
4.415,8.125,0,0,0,0,0
4.416,6.875,0,0,0,0,0
4.417,5.9375,0,0,0,0,0
4.418,5.3125,0,0,0,0,0
4.419,5,0,0,0,0,0
4.42,3.625,0,0,0,0,0
4.421,2.1875,0,0,0,0,0
4.422,3.375,0,0,0,0,0
4.423,3.75,0,0,0,0,0
4.424,3.625,0,0,0,0,0
4.425,3.125,0,0,0,0,0
4.426,2.8125,0,0,0,0,0
4.427,2.5,0,0,0,0,0
4.428,2.9375,0,0,0,0,0
4.429,2.8125,0,0,0,0,0
4.43,2.6875,0,0,0,0,0
4.431,2.5,0,0,0,0,0
4.432,2.5,0,0,0,0,0
4.433,2.1875,0,0,0,0,0
4.434,1.6875,0,0,0,0,0
4.435,0.9375,0,0,0,0,0
4.436,1.6875,0,0,0,0,0
4.437,2.5,0,0,0,0,0
4.438,2.375,0,0,0,0,0
4.439,1.875,0,0,0,0,0
4.44,0.1875,0,0,0,0,0
4.441,-0.625,0,0,0,0,0
4.442,-1.375,0,0,0,0,0
4.443,-1.875,0,0,0,0,0
4.444,-2.5,0,0,0,0,0
4.445,-1.875,0,0,0,0,0
4.446,-0.625,0,0,0,0,0
4.447,0.9375,0,0,1,0,0
4.448,1.25,0,0,0,0,0
4.449,0.625,0,0,0,0,0
4.45,-1.1875,0,0,0,0,0
4.451,-1.5625,0,0,0,0,0
4.452,-1.25,0,0,0,0,0
4.453,-1.25,0,0,0,0,0
4.454,-0.9375,0,0,0,0,0
4.455,-1.25,0,0,0,0,0
4.456,-1.5625,0,0,0,0,0
4.457,-2.1875,0,0,0,0,0
4.458,-2.6875,0,0,0,0,0
4.459,-2.1875,0,0,0,0,0
4.46,-2.5,0,0,0,0,0
4.461,-2.8125,0,0,0,0,0
4.462,-1.9375,0,0,0,0,0
4.463,-1.5625,0,0,0,0,0
4.464,-1,0,0,0,0,0
4.465,-0.625,0,0,0,0,0
4.466,-1.125,0,0,0,0,0
4.467,-0.625,0,0,0,0,0
4.468,0.5,0,0,0,0,0
4.469,1.25,0,0,0,0,0
4.47,1.125,0,0,0,0,0
4.471,1.5625,0,0,0,0,0
4.472,-0.125,0,0,0,0,0
4.473,-1.875,0,0,0,0,0
4.474,-2.375,0,0,0,0,0
4.475,-1.5625,0,0,0,0,0
4.476,-1.25,0,0,0,0,0
4.477,-0.625,0,0,0,0,0
4.478,-1.25,0,0,0,0,0
4.479,-1.875,0,0,0,0,0
4.48,-2.1875,0,0,0,0,0
4.481,-3.125,0,0,0,0,0
4.482,-2.8125,0,0,0,0,0
4.483,-2.8125,0,0,0,0,0
4.484,-2.375,0,0,0,0,0
4.485,-1.875,0,0,0,0,0
4.486,-2.1875,0,0,0,0,0
4.487,-1.5625,0,0,0,0,0
4.488,-0.75,0,0,0,0,0
4.489,-0.9375,0,0,0,0,0
4.49,-0.8125,0,0,0,0,0
4.491,-1.25,0,0,0,0,0
4.492,-1.0625,0,0,0,0,0
4.493,-0.3125,0,0,0,0,0
4.494,-1.875,0,0,0,0,0
4.495,-2.1875,0,0,0,0,0
4.496,-2.5,0,0,0,0,0
4.497,-3.125,0,0,0,0,0
4.498,-2.8125,0,0,0,0,0
4.499,-3.125,0,0,0,0,0
4.5,-2.3125,0,0,0,0,0
4.501,-2.5,0,0,0,0,0
4.502,-2.5,0,0,0,0,0
4.503,-2.8125,0,0,0,0,0
4.504,-2.5,0,0,0,0,0
4.505,-1.875,0,0,0,0,0
4.506,-1.875,0,0,0,0,0
4.507,-1.25,0,0,0,0,0
4.508,-2.75,0,0,0,0,0
4.509,-3.75,0,0,0,0,0
4.51,-3.25,0,0,0,0,0
4.511,-3.125,0,0,0,0,0
4.512,-2.6875,0,0,0,0,0
4.513,-2.8125,0,0,0,0,0
4.514,-2.8125,0,0,0,0,0
4.515,-3.125,0,0,0,0,0
4.516,-3.3125,0,0,0,0,0
4.517,-3.4375,0,0,0,0,0
4.518,-3.125,0,0,0,0,0
4.519,-3.125,0,0,0,0,0
4.52,-3.3125,0,0,0,0,0
4.521,-3.4375,0,0,0,0,0
4.522,-3,0,0,0,0,0
4.523,-2.1875,0,0,0,0,0
4.524,-2.5,0,0,0,0,0
4.525,-2.1875,0,0,0,0,0
4.526,-1.375,0,0,0,0,0
4.527,-1.5625,0,0,0,0,0
4.528,-2.625,0,0,0,0,0
4.529,-2.5,0,0,0,0,0
4.53,-2.9375,0,0,0,0,0
4.531,-2.5,0,0,0,0,0
4.532,-2.1875,0,0,0,0,0
4.533,-1.25,0,0,0,0,0
4.534,-1.4375,0,0,0,0,0
4.535,-1.5625,0,0,0,0,0
4.536,-3.25,0,0,0,0,0
4.537,-4.0625,0,0,0,0,0
4.538,-4.875,0,0,0,0,0
4.539,-4.375,0,0,0,0,0
4.54,-5,0,0,0,0,0
4.541,-5.3125,0,0,0,0,0
4.542,-5.125,0,0,0,0,0
4.543,-5,0,0,0,0,0
4.544,-4.8125,0,0,0,0,0
4.545,-3.75,0,0,0,0,0
4.546,-3.875,0,0,0,0,0
4.547,-4.6875,0,0,0,0,0
4.548,-4.5,0,0,0,0,0
4.549,-4.0625,0,0,0,0,0
4.55,-3.5625,0,0,0,0,0
4.551,-3.4375,0,0,0,0,0
4.552,-3.875,0,0,0,0,0
4.553,-4.6875,0,0,0,0,0
4.554,-5.125,0,0,0,0,0
4.555,-5.9375,0,0,0,0,0
4.556,-5.5,0,0,0,0,0
4.557,-5,0,0,0,0,0
4.558,-4.5625,0,0,0,0,0
4.559,-4.0625,0,0,0,0,0
4.56,-4.375,0,0,0,0,0
4.561,-4.6875,0,0,0,0,0
4.562,-5.4375,0,0,0,0,0
4.563,-5.9375,0,0,0,0,0
4.564,-5.9375,0,0,0,0,0
4.565,-6.5625,0,0,0,0,0
4.566,-6.5625,0,0,0,0,0
4.567,-6.5625,0,0,0,0,0
4.568,-5.3125,0,0,0,0,0
4.569,-5.9375,0,0,0,0,0
4.57,-5.3125,0,0,0,0,0
4.571,-5.3125,0,0,0,0,0
4.572,-5.4375,0,0,0,0,0
4.573,-5.625,0,0,0,0,0
4.574,-4.5625,0,0,0,0,0
4.575,-5.3125,0,0,0,0,0
4.576,-5.8125,0,0,0,0,0
4.577,-7.1875,0,0,0,0,0
4.578,-8.4375,0,0,0,0,0
4.579,-8.4375,0,0,0,0,0
4.58,-7.875,0,0,0,0,0
4.581,-7.1875,0,0,0,0,0
4.582,-7.4375,0,0,0,0,0
4.583,-7.8125,0,0,0,0,0
4.584,-7.5,0,0,0,0,0
4.585,-7.5,0,0,0,0,0
4.586,-7.75,0,0,0,0,0
4.587,-8.125,0,0,0,0,0
4.588,-7.9375,0,0,0,0,0
4.589,-7.8125,0,0,0,0,0
4.59,-8.0625,0,0,0,0,0
4.591,-8.75,0,0,0,0,0
4.592,-8.875,0,0,0,0,0
4.593,-8.75,0,0,0,0,0
4.594,-7.5,0,0,0,0,0
4.595,-7.1875,0,0,0,0,0
4.596,-7,0,0,0,0,0
4.597,-6.875,0,0,0,0,0
4.598,-6.4375,0,0,0,0,0
4.599,-6.5625,0,0,0,0,0
4.6,-6.875,0,0,0,0,0
4.601,-6.875,0,0,0,0,0
4.602,-6.875,0,0,0,0,0
4.603,-6.25,0,0,0,0,0
4.604,-5.5,0,0,0,0,0
4.605,-4.0625,0,0,0,0,0
4.606,-3.5625,0,0,0,0,0
4.607,-4.0625,0,0,0,0,0
4.608,-6.5625,0,0,0,0,0
4.609,-8.125,0,0,0,0,0
4.61,-9,0,0,0,0,0
4.611,-10.313,0,0,0,0,0
4.612,-10.75,0,0,0,0,0
4.613,-10.313,0,0,0,0,0
4.614,-9.75,0,0,0,0,0
4.615,-8.4375,0,0,0,0,0
4.616,-7.3125,0,0,0,0,0
4.617,-6.875,0,0,0,1,0
4.618,-6.875,0,0,0,0,0
4.619,-6.875,0,0,0,0,0
4.62,-7.5,0,0,0,0,0
4.621,-7.5,0,0,0,0,0
4.622,-7.3125,0,0,0,0,0
4.623,-6.875,0,0,0,0,0
4.624,-7.625,0,0,0,0,0
4.625,-7.5,0,0,0,0,0
4.626,-7.8125,0,0,0,0,0
4.627,-7.8125,0,0,0,0,0
4.628,-7.375,0,0,0,0,0
4.629,-7.1875,0,0,0,0,0
4.63,-7.1875,0,0,0,0,0
4.631,-6.875,0,0,0,0,0
4.632,-5.625,0,0,0,0,0
4.633,-5.3125,0,0,0,0,0
4.634,-5.4375,0,0,0,0,0
4.635,-5.9375,0,0,0,0,0
4.636,-6.0625,0,0,0,0,0
4.637,-5.625,0,0,0,0,0
4.638,-6.0625,0,0,0,0,0
4.639,-5.9375,0,0,0,0,0
4.64,-5.75,0,0,0,0,0
4.641,-5.625,0,0,0,0,0
4.642,-5.625,0,0,0,0,0
4.643,-5.625,0,0,0,0,0
4.644,-4.8125,0,0,0,0,0
4.645,-5.625,0,0,0,0,0
4.646,-5,0,0,0,0,0
4.647,-4.6875,0,0,0,0,0
4.648,-3.75,0,0,0,0,0
4.649,-2.8125,0,0,0,0,0
4.65,-1.5625,0,0,0,0,0
4.651,-1.875,0,0,0,0,0
4.652,-1.6875,0,0,0,0,0
4.653,-1.25,0,0,0,0,0
4.654,-1.25,0,0,0,0,0
4.655,-1.875,0,0,0,0,0
4.656,-2.8125,0,0,0,0,0
4.657,-4.6875,0,0,0,0,0
4.658,-4.8125,0,0,0,0,0
4.659,-4.375,0,0,0,0,0
4.66,-3.125,0,0,0,0,0
4.661,-1.875,0,0,0,0,0
4.662,-2.0625,0,0,0,0,0
4.663,-2.5,0,0,0,0,0
4.664,-1.6875,0,0,0,0,0
4.665,-1.5625,0,0,0,0,0
4.666,-0.75,0,0,0,0,0
4.667,-2.1875,0,0,0,0,0
4.668,-2.9375,0,0,0,0,0
4.669,-3.4375,0,0,0,0,0
4.67,-4,0,0,0,0,0
4.671,-4.0625,0,0,0,0,0
4.672,-2.5625,0,0,0,0,0
4.673,-1.875,0,0,0,0,0
4.674,-1.25,0,0,0,0,0
4.675,-0.625,0,0,0,0,0
4.676,-0.625,0,0,0,0,0
4.677,0,0,0,0,0,0
4.678,0.3125,0,0,0,0,0
4.679,1.25,0,0,0,0,0
4.68,0,0,0,0,0,0
4.681,-0.3125,0,0,0,0,0
4.682,-0.625,0,0,0,0,0
4.683,-1.5625,0,0,0,0,0
4.684,-0.9375,0,0,0,0,0
4.685,-0.625,0,0,0,0,0
4.686,0.125,0,0,0,0,0
4.687,0.625,0,0,0,0,0
4.688,1.6875,0,0,0,0,0
4.689,1.25,0,0,0,0,0
4.69,0.9375,0,0,0,0,0
4.691,0.9375,0,0,0,0,0
4.692,0.0625,0,0,0,0,0
4.693,0,0,0,0,0,1
4.694,-0.9375,0,0,0,0,0
4.695,-0.9375,0,0,0,0,0
4.696,0.5625,0,0,0,0,0
4.697,1.875,0,0,0,0,0
4.698,2.5,0,0,0,0,0
4.699,2.1875,0,0,0,0,0
4.7,2.1875,0,0,0,0,0
4.701,1.875,0,0,0,0,0
4.702,1.5625,0,0,0,0,0
4.703,1.25,0,0,0,0,0
4.704,0.8125,0,0,0,0,0
4.705,0.9375,0,0,0,0,0
4.706,0.625,0,0,0,0,0
4.707,0,0,0,0,0,0
4.708,0.125,0,0,0,0,0
4.709,0,0,0,0,0,0
4.71,0.4375,0,0,0,0,0
4.711,0.625,0,0,0,0,0
4.712,-0.125,0,0,0,0,0
4.713,0,0,0,0,0,0
4.714,-0.0625,0,0,0,0,0
4.715,0.625,0,0,0,0,0
4.716,0.8125,0,0,0,0,0
4.717,0.9375,0,0,0,0,0
4.718,0.3125,0,0,0,0,0
4.719,0,0,0,0,0,0
4.72,0.4375,0,0,0,0,0
4.721,0.9375,0,0,0,0,0
4.722,0.625,0,0,0,0,0
4.723,0.9375,0,0,0,0,0
4.724,0.75,0,0,0,0,0
4.725,0.3125,0,0,0,0,0
4.726,0.625,0,0,0,0,0
4.727,0.9375,0,0,0,0,0
4.728,0.9375,0,0,0,0,0
4.729,0.9375,0,0,0,0,0
4.73,0.625,0,0,0,0,0
4.731,1.25,0,0,0,0,0
4.732,1.25,0,0,0,0,0
4.733,0,0,0,0,0,0
4.734,-0.125,0,0,0,0,0
4.735,0,0,0,0,0,0
4.736,-0.5625,0,0,0,0,0
4.737,-0.3125,0,0,0,0,0
4.738,-0.625,0,0,0,0,0
4.739,0.3125,0,0,0,0,0
4.74,1.1875,0,0,0,0,0
4.741,2.1875,0,0,0,0,0
4.742,2.3125,0,0,0,0,0
4.743,1.875,0,0,0,0,0
4.744,0.1875,0,0,0,0,0
4.745,-0.3125,0,0,0,0,0
4.746,0.3125,0,0,0,0,0
4.747,0,0,0,0,0,0
4.748,0.4375,0,0,0,0,0
4.749,0.9375,0,0,0,0,0
4.75,0.625,0,0,0,0,0
4.751,0.625,0,0,0,0,0
4.752,-0.1875,0,0,0,0,0
4.753,0.625,0,0,0,0,0
4.754,0.375,0,0,0,0,0
4.755,0.3125,0,0,0,0,0
4.756,1.0625,0,0,0,0,0
4.757,1.25,0,0,0,0,0
4.758,0.8125,0,0,0,0,0
4.759,0.625,0,0,0,0,0
4.76,-0.3125,0,0,0,0,0
4.761,-0.625,0,0,0,0,0
4.762,-1.125,0,0,0,0,0
4.763,-0.9375,0,0,0,0,0
4.764,0.4375,0,0,0,0,0
4.765,0.625,0,0,0,0,0
4.766,-0.5,0,0,0,0,0
4.767,0,0,0,0,0,0
4.768,-0.3125,0,0,0,0,0
4.769,-0.3125,0,0,0,0,0
4.77,-0.1875,0,0,0,0,0
4.771,0.9375,0,0,0,0,0
4.772,0.5,0,0,0,0,0
4.773,0.3125,0,0,0,0,0
4.774,0.3125,0,0,0,0,0
4.775,0.3125,0,0,0,0,0
4.776,-1.375,0,0,0,0,0
4.777,-1.25,0,0,0,0,0
4.778,-1.5625,0,0,0,0,0
4.779,-1.875,0,0,0,0,0
4.78,-0.8125,0,0,0,0,0
4.781,0.625,0,0,0,0,0
4.782,0.625,0,0,0,0,0
4.783,1.5625,0,0,0,0,0
4.784,0.8125,0,0,0,0,0
4.785,0,0,0,0,0,0
4.786,-0.0625,0,0,0,0,0
4.787,-0.3125,0,0,0,0,0
4.788,-0.5,0,0,0,0,0
4.789,-0.625,0,0,0,0,0
4.79,-0.3125,0,0,0,0,0
4.791,0,0,0,0,0,0
4.792,-0.125,0,0,0,0,0
4.793,0,0,0,0,0,0
4.794,0,0,0,0,0,0
4.795,0,0,0,0,0,0
4.796,0.3125,0,0,0,0,0
4.797,-0.3125,0,0,0,0,0
4.798,-0.125,0,0,0,0,0
4.799,-0.3125,0,0,0,0,0
4.8,-0.1875,0,0,0,0,0
4.801,0,0,0,0,0,0
4.802,-0.625,0,0,0,0,0
4.803,-0.625,0,0,0,0,0
4.804,0.5,0,0,0,0,0
4.805,0.625,0,0,0,0,0
4.806,0.8125,0,0,0,0,0
4.807,0.625,0,0,0,0,0
4.808,0.5,0,0,0,0,0
4.809,0.625,0,0,0,0,0
4.81,0.5,0,0,0,0,0
4.811,0.3125,0,0,0,0,0
4.812,0.1875,0,0,0,0,0
4.813,0,0,0,0,0,0
4.814,-0.4375,0,0,0,0,0
4.815,-1.25,0,0,0,0,0
4.816,-0.125,0,0,0,0,0
4.817,0,0,0,0,0,0
4.818,0.3125,0,0,0,0,0
4.819,0.3125,0,0,0,0,0
4.82,-0.5625,0,0,0,0,0
4.821,-1.25,0,0,0,0,0
4.822,-0.625,0,0,0,0,0
4.823,0,0,0,0,0,0
4.824,-0.5,0,0,0,0,0
4.825,0,0,0,0,0,0
4.826,-1.5625,0,0,0,0,0
4.827,-2.1875,0,0,0,0,0
4.828,-2.625,0,0,0,0,0
4.829,-2.1875,0,0,0,0,0
4.83,-1.5625,0,0,0,0,0
4.831,-1.25,0,0,0,0,0
4.832,-1.1875,0,0,0,0,0
4.833,-0.9375,0,0,0,0,0
4.834,-1.125,0,0,0,0,0
4.835,-1.25,0,0,0,0,0
4.836,-2.3125,0,0,0,0,0
4.837,-3.125,0,0,0,0,0
4.838,-3.125,0,0,0,0,0
4.839,-2.8125,0,0,0,0,0
4.84,-1.5625,0,0,0,0,0
4.841,0,0,0,0,0,0
4.842,0.9375,0,0,0,0,0
4.843,1.5625,0,0,0,0,0
4.844,1.0625,0,0,0,0,0
4.845,2.1875,0,0,0,0,0
4.846,2.0625,0,0,0,0,0
4.847,1.875,0,0,0,0,0
4.848,0.5,0,0,0,0,0
4.849,-0.3125,0,0,0,0,0
4.85,0.3125,0,0,0,0,0
4.851,0.625,0,0,0,0,0
4.852,-0.75,0,0,0,0,0
4.853,-1.5625,0,0,0,0,0
4.854,-0.5,0,0,0,0,0
4.855,-0.9375,0,0,0,0,0
4.856,-1.125,0,0,0,0,0
4.857,-0.9375,0,0,0,0,0
4.858,-0.9375,0,0,0,0,0
4.859,-1.25,0,0,0,0,0
4.86,-1.5625,0,0,0,0,0
4.861,-0.9375,0,0,0,0,0
4.862,0.25,0,0,0,0,0
4.863,0.625,0,0,0,0,0
4.864,0.9375,0,0,0,0,0
4.865,-0.3125,0,0,0,0,0
4.866,-0.4375,0,0,0,0,0
4.867,-0.3125,0,0,0,0,0
4.868,0,0,0,0,0,0
4.869,0.625,0,0,0,0,0
4.87,1.125,0,0,0,0,0
4.871,1.25,0,0,0,0,0
4.872,1.25,0,0,0,0,0
4.873,1.25,0,0,0,0,0
4.874,1.625,0,0,0,0,0
4.875,1.25,0,0,0,0,0
4.876,-0.125,0,0,0,0,0
4.877,-1.5625,0,0,0,0,0
4.878,-2.8125,0,0,0,0,0
4.879,-2.5,0,0,0,0,0
4.88,-2.5625,0,0,0,0,0
4.881,-1.875,0,0,0,0,0
4.882,-1.375,0,0,0,0,0
4.883,-1.5625,0,0,0,0,0
4.884,-1.0625,0,0,0,0,0
4.885,-1.25,0,0,0,0,0
4.886,-1.125,0,0,0,0,0
4.887,0.625,0,0,0,0,0
4.888,0.9375,0,0,0,0,0
4.889,1.25,0,0,0,0,0
4.89,-0.3125,0,0,0,0,0
4.891,0,0,0,0,0,0
4.892,0,0,0,0,0,0
4.893,-0.625,0,0,0,0,0
4.894,0.3125,0,0,0,0,0
4.895,-0.3125,0,0,0,0,0
4.896,-0.3125,0,0,0,0,0
4.897,0,0,0,0,0,0
4.898,0.625,0,0,0,0,0
4.899,0,0,0,0,0,0
4.9,0.625,0,0,0,0,0
4.901,0.625,0,0,0,0,0
4.902,1.25,0,0,0,0,0
4.903,1.875,0,0,0,0,0
4.904,1.6875,0,0,0,0,0
4.905,2.1875,0,0,0,0,0
4.906,2.5,0,0,0,0,0
4.907,2.8125,0,0,0,0,0
4.908,2.625,0,0,0,0,0
4.909,2.5,0,0,0,0,0
4.91,1.625,0,0,0,0,0
4.911,0.625,0,0,0,0,0
4.912,1,0,0,0,0,0
4.913,0.625,0,0,0,0,0
4.914,0.4375,0,0,0,0,0
4.915,0.9375,0,0,0,0,0
4.916,-0.125,0,0,0,0,0
4.917,-1.25,0,0,0,0,0
4.918,-1.4375,0,0,0,0,0
4.919,-1.25,0,0,0,0,0
4.92,-1.375,0,0,0,0,0
4.921,-1.5625,0,0,0,0,0
4.922,-1.5625,0,0,0,0,0
4.923,-1.25,0,0,0,0,0
4.924,-2.75,0,0,0,0,0
4.925,-2.8125,0,0,0,0,0
4.926,-2.25,0,0,0,0,0
4.927,-1.875,0,0,0,0,0
4.928,-1.25,0,0,0,0,0
4.929,-0.3125,0,0,0,0,0
4.93,-0.8125,0,0,0,0,0
4.931,-0.9375,0,0,0,0,0
4.932,-0.8125,0,0,0,0,0
4.933,-0.625,0,0,0,0,0
4.934,-1.4375,0,0,0,0,0
4.935,-1.875,0,0,0,0,0
4.936,-2.3125,0,0,0,0,0
4.937,-2.5,0,0,0,0,0
4.938,-2.1875,0,0,0,0,0
4.939,-2.1875,0,0,0,0,0
4.94,-1.4375,0,0,0,0,0
4.941,-0.625,0,0,0,0,0
4.942,-1.375,0,0,0,0,0
4.943,-2.5,0,0,0,0,0
4.944,-2.625,0,0,0,0,0
4.945,-3.4375,0,0,0,0,0
4.946,-4.0625,0,0,0,0,0
4.947,-4.375,0,0,0,0,0
4.948,-3.1875,0,0,0,0,0
4.949,-3.125,0,0,0,0,0
4.95,-3.4375,0,0,0,0,0
4.951,-3.75,0,0,0,0,0
4.952,-3.8125,0,0,0,0,0
4.953,-3.4375,0,0,0,0,0
4.954,-3.625,0,0,0,0,0
4.955,-3.4375,0,0,0,0,0
4.956,-3.4375,0,0,0,0,0
4.957,-4.0625,0,0,0,0,0
4.958,-4.4375,0,0,0,0,0
4.959,-4.6875,0,0,0,0,0
4.96,-4.3125,0,0,0,0,0
4.961,-4.6875,0,0,0,0,0
4.962,-3.75,0,0,0,0,0
4.963,-3.125,0,0,0,0,0
4.964,-2.6875,0,0,0,0,0
4.965,-1.875,0,0,0,0,0
4.966,-0.9375,0,0,0,0,0
4.967,-0.625,0,0,0,0,0
4.968,0,0,0,0,0,0
4.969,-0.625,0,0,0,0,0
4.97,-2.1875,0,0,0,0,0
4.971,-3.125,0,0,0,0,0
4.972,-3.4375,0,0,0,0,0
4.973,-3.4375,0,0,0,0,0
4.974,-2.8125,0,0,0,0,0
4.975,-2.1875,0,0,0,0,0
4.976,-2,0,0,0,0,0
4.977,-1.5625,0,0,0,0,0
4.978,-1.875,0,0,0,0,0
4.979,-1.5625,0,0,0,0,0
4.98,-1.0625,0,0,0,0,0
4.981,-0.9375,0,0,0,0,0
4.982,-0.1875,0,0,0,0,0
4.983,-0.625,0,0,0,0,0
4.984,-1.375,0,0,0,0,0
4.985,-1.5625,0,0,0,0,0
4.986,-0.75,0,0,0,0,0
4.987,-0.3125,0,0,0,0,0
4.988,0.125,0,0,0,0,0
4.989,0.9375,0,0,0,0,0
4.99,0.3125,0,0,0,0,0
4.991,-0.625,0,0,0,0,0
4.992,-1.25,0,0,0,0,0
4.993,-1.5625,0,0,0,0,0
4.994,-1.125,0,0,0,0,0
4.995,-0.9375,0,0,0,0,0
4.996,-0.9375,0,0,0,0,0
4.997,-1.25,0,0,0,0,0
4.998,-1.375,0,0,0,0,0
4.999,-1.5625,0,0,0,0,0
5,-1.125,0,0,0,0,0
5.001,-0.625,0,0,0,0,0
5.002,-0.125,0,0,0,0,0
5.003,-0.3125,0,0,0,0,0
5.004,0.5625,0,0,0,0,0
5.005,0.625,0,0,0,0,0
5.006,0.75,0,0,0,0,0
5.007,0.625,0,0,0,0,0
5.008,0.4375,0,0,0,0,0
5.009,0.3125,0,0,0,0,0
5.01,-0.3125,0,0,0,0,0
5.011,-1.25,0,0,0,0,0
5.012,-1.25,0,0,0,0,0
5.013,-1.875,0,0,0,0,0
5.014,-0.5,0,0,0,0,0
5.015,0.625,0,0,0,0,0
5.016,0.3125,0,0,0,0,0
5.017,0.3125,0,0,0,0,0
5.018,-0.4375,0,0,0,0,0
5.019,-0.9375,0,0,0,0,0
5.02,-1.0625,0,0,0,0,0
5.021,-1.5625,0,0,0,0,0
5.022,-2.0625,0,0,0,0,0
5.023,-0.9375,0,0,0,0,0
5.024,-1.6875,0,0,0,0,0
5.025,-0.9375,0,0,0,0,0
5.026,-1.0625,0,0,0,0,0
5.027,-0.9375,0,0,0,0,0
5.028,-1.0625,0,0,0,0,0
5.029,-0.625,0,0,0,0,0
5.03,-0.625,0,0,0,0,0
5.031,-0.625,0,0,0,0,0
5.032,-1.125,0,0,0,0,0
5.033,-0.9375,0,0,0,0,0
5.034,0.125,0,0,0,0,0
5.035,0.625,0,0,0,0,0
5.036,0.8125,0,0,0,0,0
5.037,0.3125,0,0,0,0,0
5.038,-0.5,0,0,0,0,0
5.039,-1.5625,0,0,0,0,0
5.04,-1.875,0,0,0,0,0
5.041,-0.9375,0,0,0,0,0
5.042,-1.375,0,0,0,0,0
5.043,-1.875,0,0,0,0,0
5.044,-0.625,0,0,0,0,0
5.045,0.3125,0,0,0,0,0
5.046,0.3125,0,0,0,0,0
5.047,-0.3125,0,0,0,0,0
5.048,-0.5,0,0,0,0,0
5.049,0,0,0,0,0,0
5.05,0.25,0,0,0,0,0
5.051,1.25,0,0,0,0,0
5.052,0.6875,0,0,0,0,0
5.053,0.625,0,0,0,0,0
5.054,-1.25,0,0,0,0,0
5.055,-1.5625,0,0,0,0,0
5.056,-1.4375,0,0,0,0,0
5.057,-0.9375,0,0,0,0,0
5.058,0.9375,0,0,0,0,0
5.059,1.5625,0,0,0,0,0
5.06,2.4375,0,0,0,0,0
5.061,2.1875,1,0,0,0,0
5.062,1.6875,0,0,0,0,0
5.063,1.5625,0,0,0,0,0
5.064,1.5625,0,0,0,0,0
5.065,1.25,0,0,0,0,0
5.066,0.8125,0,0,0,0,0
5.067,0,0,0,0,0,0
5.068,-0.5,0,0,0,0,0
5.069,-0.625,0,0,0,0,0
5.07,-1.5,0,0,0,0,0
5.071,-2.5,0,0,0,0,0
5.072,-2.75,0,0,0,0,0
5.073,-2.8125,0,0,0,0,0
5.074,-3.25,0,0,0,0,0
5.075,-2.8125,0,0,0,0,0
5.076,-3,0,0,0,0,0
5.077,-2.8125,0,0,0,0,0
5.078,-3.75,0,0,0,0,0
5.079,-5.3125,0,0,0,0,0
5.08,-4.6875,0,0,0,0,0
5.081,-5,0,0,0,0,0
5.082,-6.25,0,0,0,0,0
5.083,-7.5,0,0,0,0,0
5.084,-8.4375,0,0,0,0,0
5.085,-9.6875,0,0,0,0,0
5.086,-10.188,0,0,0,0,0
5.087,-11.25,0,0,0,0,0
5.088,-11.875,0,0,0,0,0
5.089,-12.813,0,0,0,0,0
5.09,-14.063,0,0,0,0,0
5.091,-15,0,0,0,0,0
5.092,-17,0,0,0,0,0
5.093,-18.75,0,0,0,0,0
5.094,-20.813,0,0,0,0,0
5.095,-23.438,0,0,0,0,0
5.096,-24.063,0,0,0,0,0
5.097,-25,0,0,0,0,0
5.098,-27.313,0,0,0,0,0
5.099,-28.438,0,0,0,0,0
5.1,-29.375,0,0,0,0,0
5.101,-30,0,0,0,0,0
5.102,-31.75,0,0,0,0,0
5.103,-31.875,0,0,0,0,0
5.104,-31.688,0,0,0,0,0
5.105,-31.563,0,0,0,0,0
5.106,-30,0,0,0,0,0
5.107,-28.125,0,0,0,0,0
5.108,-24.125,0,0,0,0,0
5.109,-20.938,0,0,0,0,0
5.11,-19.5,0,0,0,0,0
5.111,-18.125,0,0,0,0,0
5.112,-13.938,0,0,0,0,0
5.113,-10,0,0,0,0,0
5.114,-5.6875,0,0,0,0,0
5.115,-1.875,0,0,0,0,0
5.116,1.0625,0,0,0,0,0
5.117,4.6875,0,0,0,0,0
5.118,8.4375,0,0,0,0,0
5.119,12.188,0,0,0,0,0
5.12,16.875,0,0,0,0,0
5.121,20.625,0,0,0,0,0
5.122,24.5,0,0,0,0,0
5.123,28.438,0,0,0,0,0
5.124,33.25,0,0,0,0,0
5.125,37.813,0,0,0,0,0
5.126,41.25,0,0,0,0,0
5.127,42.5,0,0,0,0,0
5.128,43.875,0,0,0,0,0
5.129,45.938,0,0,0,0,0
5.13,46.375,0,0,0,0,0
5.131,46.875,0,0,0,0,0
5.132,46.688,0,0,0,0,0
5.133,46.25,0,1,0,0,0
5.134,45.563,0,0,0,0,0
5.135,43.125,0,0,0,0,0
5.136,39.563,0,0,0,0,0
5.137,36.563,0,0,0,0,0
5.138,34.375,0,0,0,0,0
5.139,32.5,0,0,0,0,0
5.14,31.125,0,0,0,0,0
5.141,30.313,0,0,0,0,0
5.142,28.75,0,0,0,0,0
5.143,27.188,0,0,0,0,0
5.144,24.75,0,0,0,0,0
5.145,22.5,0,0,0,0,0
5.146,22.5,0,0,0,0,0
5.147,22.5,0,0,0,0,0
5.148,22.813,0,0,0,0,0
5.149,22.813,0,0,0,0,0
5.15,20.5,0,0,0,0,0
5.151,18.75,0,0,0,0,0
5.152,18.313,0,0,0,0,0
5.153,17.5,0,0,0,0,0
5.154,18.25,0,0,0,0,0
5.155,19.375,0,0,0,0,0
5.156,19.313,0,0,0,0,0
5.157,20,0,0,0,0,0
5.158,20.125,0,0,0,0,0
5.159,19.375,0,0,0,0,0
5.16,18.563,0,0,0,0,0
5.161,17.5,0,0,0,0,0
5.162,15.938,0,0,0,0,0
5.163,14.063,0,0,0,0,0
5.164,13.188,0,0,0,0,0
5.165,12.5,0,0,0,0,0
5.166,12.625,0,0,0,0,0
5.167,11.875,0,0,0,0,0
5.168,11.25,0,0,0,0,0
5.169,11.563,0,0,0,0,0
5.17,10.188,0,0,0,0,0
5.171,9.6875,0,0,0,0,0
5.172,10.125,0,0,0,0,0
5.173,10,0,0,0,0,0
5.174,10.625,0,0,0,0,0
5.175,10.625,0,0,0,0,0
5.176,10.813,0,0,0,0,0
5.177,10.938,0,0,0,0,0
5.178,10.75,0,0,0,0,0
5.179,11.25,0,0,0,0,0
5.18,11.25,0,0,0,0,0
5.181,11.875,0,0,0,0,0
5.182,11.063,0,0,0,0,0
5.183,10.938,0,0,0,0,0
5.184,13.25,0,0,0,0,0
5.185,14.688,0,0,0,0,0
5.186,14.688,0,0,0,0,0
5.187,14.688,0,0,0,0,0
5.188,14.063,0,0,0,0,0
5.189,13.438,0,0,0,0,0
5.19,12.313,0,0,0,0,0
5.191,10.938,0,0,0,0,0
5.192,11.063,0,0,0,0,0
5.193,11.563,0,0,0,0,0
5.194,12.375,0,0,0,0,0
5.195,12.813,0,0,0,0,0
5.196,13.875,0,0,0,0,0
5.197,13.75,0,0,0,0,0
5.198,13.125,0,0,0,0,0
5.199,12.5,0,0,0,0,0
5.2,11.313,0,0,0,0,0
5.201,10.625,0,0,0,0,0
5.202,10.125,0,0,0,0,0
5.203,10,0,0,0,0,0
5.204,9.6875,0,0,0,0,0
5.205,9.375,0,0,0,0,0
5.206,7.375,0,0,0,0,0
5.207,5.625,0,0,0,0,0
5.208,5.4375,0,0,0,0,0
5.209,5.3125,0,0,0,0,0
5.21,5.3125,0,0,0,0,0
5.211,5.9375,0,0,0,0,0
5.212,5.75,0,0,0,0,0
5.213,5.625,0,0,0,0,0
5.214,4.4375,0,0,0,0,0
5.215,4.0625,0,0,0,0,0
5.216,3,0,0,0,0,0
5.217,1.875,0,0,0,0,0
5.218,1.25,0,0,0,0,0
5.219,0.9375,0,0,0,0,0
5.22,0.8125,0,0,0,0,0
5.221,0.625,0,0,0,0,0
5.222,0.125,0,0,0,0,0
5.223,0.3125,0,0,0,0,0
5.224,-0.4375,0,0,0,0,0
5.225,-0.9375,0,0,0,0,0
5.226,-1.0625,0,0,0,0,0
5.227,-1.25,0,0,0,0,0
5.228,-1.375,0,0,0,0,0
5.229,-1.875,0,0,0,0,0
5.23,-1.375,0,0,0,0,0
5.231,-1.5625,0,0,0,0,0
5.232,-1.75,0,0,0,0,0
5.233,-2.5,0,0,1,0,0
5.234,-1.5625,0,0,0,0,0
5.235,-1.25,0,0,0,0,0
5.236,-1.25,0,0,0,0,0
5.237,-1.25,0,0,0,0,0
5.238,-1.125,0,0,0,0,0
5.239,-0.625,0,0,0,0,0
5.24,1.25,0,0,0,0,0
5.241,1.875,0,0,0,0,0
5.242,1.125,0,0,0,0,0
5.243,0.9375,0,0,0,0,0
5.244,0.1875,0,0,0,0,0
5.245,-0.625,0,0,0,0,0
5.246,-1.125,0,0,0,0,0
5.247,-1.25,0,0,0,0,0
5.248,-0.625,0,0,0,0,0
5.249,-0.9375,0,0,0,0,0
5.25,-1.125,0,0,0,0,0
5.251,-0.625,0,0,0,0,0
5.252,-1.125,0,0,0,0,0
5.253,-0.9375,0,0,0,0,0
5.254,-1.0625,0,0,0,0,0
5.255,-1.875,0,0,0,0,0
5.256,-1.6875,0,0,0,0,0
5.257,-1.875,0,0,0,0,0
5.258,-2.3125,0,0,0,0,0
5.259,-2.5,0,0,0,0,0
5.26,-1.875,0,0,0,0,0
5.261,-2.1875,0,0,0,0,0
5.262,-2.5,0,0,0,0,0
5.263,-3.125,0,0,0,0,0
5.264,-2.1875,0,0,0,0,0
5.265,-1.875,0,0,0,0,0
5.266,-1.3125,0,0,0,0,0
5.267,-1.25,0,0,0,0,0
5.268,-1.4375,0,0,0,0,0
5.269,-1.25,0,0,0,0,0
5.27,-2.1875,0,0,0,0,0
5.271,-1.875,0,0,0,0,0
5.272,-1.375,0,0,0,0,0
5.273,-1.5625,0,0,0,0,0
5.274,-1.6875,0,0,0,0,0
5.275,-1.875,0,0,0,0,0
5.276,-1.25,0,0,0,0,0
5.277,-0.625,0,0,0,0,0
5.278,-0.625,0,0,0,0,0
5.279,-0.3125,0,0,0,0,0
5.28,-0.9375,0,0,0,0,0
5.281,-0.625,0,0,0,0,0
5.282,0.3125,0,0,0,0,0
5.283,-0.625,0,0,0,0,0
5.284,-0.75,0,0,0,0,0
5.285,-0.9375,0,0,0,0,0
5.286,-0.625,0,0,0,0,0
5.287,-0.3125,0,0,0,0,0
5.288,-0.3125,0,0,0,0,0
5.289,0.625,0,0,0,0,0
5.29,-0.5625,0,0,0,0,0
5.291,-1.25,0,0,0,0,0
5.292,-2,0,0,0,0,0
5.293,-2.5,0,0,0,0,0
5.294,-2,0,0,0,0,0
5.295,-2.5,0,0,0,0,0
5.296,-2.9375,0,0,0,0,0
5.297,-3.75,0,0,0,0,0
5.298,-3.9375,0,0,0,0,0
5.299,-4.0625,0,0,0,0,0
5.3,-3.3125,0,0,0,0,0
5.301,-2.1875,0,0,0,0,0
5.302,-2,0,0,0,0,0
5.303,-1.5625,0,0,0,0,0
5.304,-1.875,0,0,0,0,0
5.305,-1.875,0,0,0,0,0
5.306,-1.875,0,0,0,0,0
5.307,-1.5625,0,0,0,0,0
5.308,-2,0,0,0,0,0
5.309,-2.8125,0,0,0,0,0
5.31,-3.875,0,0,0,0,0
5.311,-4.6875,0,0,0,0,0
5.312,-4.125,0,0,0,0,0
5.313,-4.0625,0,0,0,0,0
5.314,-3.125,0,0,0,0,0
