0,1.25,0,0,0,0,0
0.001,3.125,0,0,0,0,0
0.002,3.4375,0,0,0,0,0
0.003,3.75,0,0,0,0,0
0.004,3.125,0,0,0,0,0
0.005,3.75,0,0,0,0,0
0.006,3.125,0,0,0,0,0
0.007,3.125,0,0,0,0,0
0.008,3.75,0,0,0,0,0
0.009,3.75,0,0,0,0,0
0.01,3.4375,0,0,0,0,0
0.011,3.125,0,0,0,0,0
0.012,3.75,0,0,0,0,0
0.013,3.75,0,0,0,0,0
0.014,3.75,0,0,0,0,0
0.015,3.75,0,0,0,0,0
0.016,3.4375,0,0,0,0,0
0.017,3.125,0,0,0,0,0
0.018,4.0625,0,0,0,0,0
0.019,3.75,0,0,0,0,0
0.02,3.75,0,0,0,0,0
0.021,3.125,0,0,0,0,0
0.022,2.8125,0,0,0,0,0
0.023,3.125,0,0,0,0,0
0.024,3.125,0,0,0,0,0
0.025,3.125,0,0,0,0,0
0.026,3.4375,0,0,0,0,0
0.027,3.75,0,0,0,0,0
0.028,3.75,0,0,0,0,0
0.029,3.75,0,0,0,0,0
0.03,3.75,0,0,0,0,0
0.031,3.75,0,0,0,0,0
0.032,4.375,0,0,0,0,0
0.033,3.75,0,0,0,0,0
0.034,3.75,0,0,0,0,0
0.035,3.75,0,0,0,0,0
0.036,3.75,0,0,0,0,0
0.037,3.75,0,0,0,0,0
0.038,3.4375,0,0,0,0,0
0.039,2.5,0,0,0,0,0
0.04,3.125,0,0,0,0,0
0.041,3.125,0,0,0,0,0
0.042,3.125,0,0,0,0,0
0.043,3.125,0,0,0,0,0
0.044,3.125,0,0,0,0,0
0.045,3.125,0,0,0,0,0
0.046,3.125,0,0,0,0,0
0.047,3.75,0,0,0,0,0
0.048,3.4375,0,0,0,0,0
0.049,3.75,0,0,0,0,0
0.05,3.4375,0,0,0,0,0
0.051,3.125,0,0,0,0,0
0.052,3.4375,0,0,0,0,0
0.053,3.75,0,0,0,0,0
0.054,4.0625,0,0,0,0,0
0.055,4.375,0,0,0,0,0
0.056,3.4375,0,0,0,0,0
0.057,3.75,0,0,0,0,0
0.058,3.125,0,0,0,0,0
0.059,3.75,0,0,0,0,0
0.06,3.75,0,0,0,0,0
0.061,3.75,0,0,0,0,0
0.062,3.75,0,0,0,0,0
0.063,3.75,0,0,0,0,0
0.064,3.4375,0,0,0,0,0
0.065,2.5,0,0,0,0,0
0.066,2.5,0,0,0,0,0
0.067,2.5,0,0,0,0,0
0.068,2.5,0,0,0,0,0
0.069,2.5,0,0,0,0,0
0.07,2.5,0,0,0,0,0
0.071,3.125,0,0,0,0,0
0.072,2.5,0,0,0,0,0
0.073,2.5,0,0,0,0,0
0.074,2.1875,0,0,0,0,0
0.075,1.875,0,0,0,0,0
0.076,2.1875,0,0,0,0,0
0.077,2.5,0,0,0,0,0
0.078,2.5,0,0,0,0,0
0.079,2.5,0,0,0,0,0
0.08,2.5,0,0,0,0,0
0.081,2.5,0,0,0,0,0
0.082,2.5,0,0,0,0,0
0.083,2.5,0,0,0,0,0
0.084,2.5,0,0,0,0,0
0.085,2.5,0,0,0,0,0
0.086,2.1875,0,0,0,0,0
0.087,2.5,0,0,0,0,0
0.088,2.1875,0,0,0,0,0
0.089,3.125,0,0,0,0,0
0.09,2.5,0,0,0,0,0
0.091,2.5,0,0,0,0,0
0.092,2.5,0,0,0,0,0
0.093,2.5,0,0,0,0,0
0.094,2.5,0,0,0,0,0
0.095,1.25,0,0,0,0,0
0.096,1.25,0,0,0,0,0
0.097,1.25,0,0,0,0,0
0.098,1.25,0,0,0,0,0
0.099,1.25,0,0,0,0,0
0.1,0.9375,0,0,0,0,0
0.101,1.25,0,0,0,0,0
0.102,1.875,0,0,0,0,0
0.103,1.875,0,0,0,0,0
0.104,1.875,0,0,0,0,0
0.105,1.875,0,0,0,0,0
0.106,2.5,0,0,0,0,0
0.107,2.5,0,0,0,0,0
0.108,2.5,0,0,0,0,0
0.109,2.5,0,0,0,0,0
0.11,2.1875,0,0,0,0,0
0.111,1.875,0,0,0,0,0
0.112,1.5625,0,0,0,0,0
0.113,1.25,0,0,0,0,0
0.114,1.25,0,0,0,0,0
0.115,1.25,0,0,0,0,0
0.116,1.875,0,0,0,0,0
0.117,1.875,0,0,0,0,0
0.118,1.875,0,0,0,0,0
0.119,1.875,0,0,0,0,0
0.12,1.875,0,0,0,0,0
0.121,1.875,0,0,0,0,0
0.122,1.25,0,0,0,0,0
0.123,1.25,0,0,0,0,0
0.124,1.875,0,0,0,0,0
0.125,2.5,0,0,0,0,0
0.126,2.8125,0,0,0,0,0
0.127,2.5,0,0,0,0,0
0.128,2.8125,0,0,0,0,0
0.129,2.5,0,0,0,0,0
0.13,2.5,0,0,0,0,0
0.131,2.5,0,0,0,0,0
0.132,2.1875,0,0,0,0,0
0.133,1.875,0,0,0,0,0
0.134,1.875,0,0,0,0,0
0.135,1.875,0,0,0,0,0
0.136,2.8125,0,0,0,0,0
0.137,3.125,0,0,0,0,0
0.138,2.1875,0,0,0,0,0
0.139,1.875,0,0,0,0,0
0.14,1.875,0,0,0,0,0
0.141,1.875,0,0,0,0,0
0.142,1.875,0,0,0,0,0
0.143,1.875,0,0,0,0,0
0.144,2.5,0,0,0,0,0
0.145,2.5,0,0,0,0,0
0.146,2.5,0,0,0,0,0
0.147,2.5,0,0,0,0,0
0.148,2.8125,0,0,0,0,0
0.149,2.5,0,0,0,0,0
0.15,2.1875,0,0,0,0,0
0.151,2.5,0,0,0,0,0
0.152,2.8125,0,0,0,0,0
0.153,3.125,0,0,0,0,0
0.154,3.125,0,0,0,0,0
0.155,3.75,0,0,0,0,0
0.156,3.75,0,0,0,0,0
0.157,4.375,0,0,0,0,0
0.158,3.4375,0,0,0,0,0
0.159,3.75,0,0,0,0,0
0.16,3.75,0,0,0,0,0
0.161,3.75,0,0,0,0,0
0.162,4.375,0,0,0,0,0
0.163,5,0,0,0,0,0
0.164,5,0,0,0,0,0
0.165,5,0,0,0,0,0
0.166,5.3125,0,0,0,0,0
0.167,5,0,0,0,0,0
0.168,4.6875,0,0,0,0,0
0.169,4.375,0,0,0,0,0
0.17,4.375,0,0,0,0,0
0.171,4.375,0,0,0,0,0
0.172,4.375,0,0,0,0,0
0.173,4.375,0,0,0,0,0
0.174,4.6875,0,0,0,0,0
0.175,5,0,0,0,0,0
0.176,5,0,0,0,0,0
0.177,5,0,0,0,0,0
0.178,5,0,0,0,0,0
0.179,5.625,0,0,0,0,0
0.18,5,0,0,0,0,0
0.181,5,0,0,0,0,0
0.182,5.3125,0,0,0,0,0
0.183,5,0,0,0,0,0
0.184,5.3125,0,0,0,0,0
0.185,5.625,0,0,0,0,0
0.186,5.625,0,0,0,0,0
0.187,5.625,0,0,0,0,0
0.188,5.625,0,0,0,0,0
0.189,5.625,0,0,0,0,0
0.19,5.625,0,0,0,0,0
0.191,5.625,0,0,0,0,0
0.192,5.625,0,0,0,0,0
0.193,5.625,0,0,0,0,0
0.194,5.625,0,0,0,0,0
0.195,5.625,0,0,0,0,0
0.196,5,0,0,0,0,0
0.197,5.625,0,0,0,0,0
0.198,5.3125,0,0,0,0,0
0.199,5.625,0,0,0,0,0
0.2,5.625,0,0,0,0,0
0.201,5,0,0,0,0,0
0.202,5.9375,0,0,0,0,0
0.203,5,0,0,0,0,0
0.204,5,0,0,0,0,0
0.205,4.375,0,0,0,0,0
0.206,4.375,0,0,0,0,0
0.207,4.375,0,0,0,0,0
0.208,3.4375,0,0,0,0,0
0.209,2.5,0,0,0,0,0
0.21,2.5,0,0,0,0,0
0.211,1.875,0,0,0,0,0
0.212,1.5625,0,0,0,0,0
0.213,1.875,0,0,0,0,0
0.214,1.875,0,0,0,0,0
0.215,1.875,0,0,0,0,0
0.216,1.5625,0,0,0,0,0
0.217,1.875,0,0,0,0,0
0.218,1.5625,0,0,0,0,0
0.219,1.25,0,0,0,0,0
0.22,0.625,0,0,0,0,0
0.221,0.625,0,0,0,0,0
0.222,0.9375,0,0,0,0,0
0.223,0.625,0,0,0,0,0
0.224,1.5625,0,0,0,0,0
0.225,1.25,0,0,0,0,0
0.226,1.25,0,0,0,0,0
0.227,0.625,0,0,0,0,0
0.228,0.625,0,0,0,0,0
0.229,0.625,0,0,0,0,0
0.23,0.9375,0,0,0,0,0
0.231,1.25,0,0,0,0,0
0.232,0.625,0,0,0,0,0
0.233,1.25,0,0,0,0,0
0.234,0.3125,0,0,0,0,0
0.235,0.625,0,0,0,0,0
0.236,0,0,0,0,0,0
0.237,0.625,0,0,0,0,0
0.238,0.9375,0,0,0,0,0
0.239,1.25,0,0,0,0,0
0.24,1.25,0,0,0,0,0
0.241,1.25,0,0,0,0,0
0.242,1.5625,0,0,0,0,0
0.243,1.25,0,0,0,0,0
0.244,1.5625,0,0,0,0,0
0.245,1.25,0,0,0,0,0
0.246,1.875,0,0,0,0,0
0.247,1.875,0,0,0,0,0
0.248,2.1875,0,0,0,0,0
0.249,1.875,0,0,0,0,0
0.25,1.25,0,0,0,0,0
0.251,0.625,0,0,0,0,0
0.252,0,0,0,0,0,0
0.253,0,0,0,0,0,0
0.254,0,0,0,0,0,0
0.255,0,0,0,0,0,0
0.256,0,0,0,0,0,0
0.257,0,0,0,0,0,0
0.258,-0.625,0,0,0,0,0
0.259,-0.625,0,0,0,0,0
0.26,-0.625,0,0,0,0,0
0.261,-0.625,0,0,0,0,0
0.262,-0.625,0,0,0,0,0
0.263,-0.625,0,0,0,0,0
0.264,0,0,0,0,0,0
0.265,-0.625,0,0,0,0,0
0.266,0,0,0,0,0,0
0.267,-0.625,0,0,0,0,0
0.268,0.625,0,0,0,0,0
0.269,0.625,0,0,0,0,0
0.27,1.5625,0,0,0,0,0
0.271,1.25,0,0,0,0,0
0.272,0.625,0,0,0,0,0
0.273,0,0,0,0,0,0
0.274,-0.3125,0,0,0,0,0
0.275,0,0,0,0,0,0
0.276,0.3125,0,0,0,0,0
0.277,0.625,0,0,0,0,0
0.278,0.625,0,0,0,0,0
0.279,0.625,0,0,0,0,0
0.28,0,0,0,0,0,0
0.281,0,0,0,0,0,0
0.282,0,0,0,0,0,0
0.283,0,0,0,0,0,0
0.284,-0.3125,0,0,0,0,0
0.285,-0.625,0,0,0,0,0
0.286,0,0,0,0,0,0
0.287,-0.625,0,0,0,0,0
0.288,0,0,0,0,0,0
0.289,-0.625,0,0,0,0,0
0.29,-0.625,0,0,0,0,0
0.291,-0.625,0,0,0,0,0
0.292,-0.625,0,0,0,0,0
0.293,0,0,0,0,0,0
0.294,-0.625,0,0,0,0,0
0.295,0,0,0,0,0,0
0.296,-0.3125,0,0,0,0,0
0.297,0,0,0,0,0,0
0.298,-0.3125,0,0,0,0,0
0.299,0,0,0,0,0,0
0.3,0.3125,0,0,0,0,0
0.301,0,0,0,0,0,0
0.302,0.3125,0,0,0,0,0
0.303,0,0,0,0,0,0
0.304,0,0,0,0,0,0
0.305,0,0,0,0,0,0
0.306,-0.3125,0,0,0,0,0
0.307,-0.625,0,0,0,0,0
0.308,0,0,0,0,0,0
0.309,0,0,0,0,0,0
0.31,0.3125,0,0,0,0,0
0.311,0,0,0,0,0,0
0.312,0.3125,0,0,0,0,0
0.313,0.625,0,0,0,0,0
0.314,0.3125,0,0,0,0,0
0.315,0,0,0,0,0,0
0.316,0,0,0,0,0,0
0.317,0,1,0,0,0,0
0.318,0.3125,0,0,0,0,0
0.319,-0.625,0,0,0,0,0
0.32,0.3125,0,0,0,0,0
0.321,0,0,0,0,0,0
0.322,0.625,0,0,0,0,0
0.323,0,0,0,0,0,0
0.324,0.9375,0,0,0,0,0
0.325,1.25,0,0,0,0,0
0.326,1.875,0,0,0,0,0
0.327,2.5,0,0,0,0,0
0.328,2.5,0,0,0,0,0
0.329,3.125,0,0,0,0,0
0.33,3.75,0,0,0,0,0
0.331,3.75,0,0,0,0,0
0.332,3.4375,0,0,0,0,0
0.333,3.125,0,0,0,0,0
0.334,4.0625,0,0,0,0,0
0.335,5,0,0,0,0,0
0.336,6.5625,0,0,0,0,0
0.337,7.5,0,0,0,0,0
0.338,8.4375,0,0,0,0,0
0.339,8.75,0,0,0,0,0
0.34,10.313,0,0,0,0,0
0.341,11.875,0,0,0,0,0
0.342,12.813,0,0,0,0,0
0.343,13.75,0,0,0,0,0
0.344,14.688,0,0,0,0,0
0.345,15.625,0,0,0,0,0
0.346,16.563,0,0,0,0,0
0.347,17.5,0,0,0,0,0
0.348,18.125,0,0,0,0,0
0.349,19.375,0,0,0,0,0
0.35,21.25,0,0,0,0,0
0.351,23.125,0,0,0,0,0
0.352,25.313,0,0,0,0,0
0.353,28.125,0,0,0,0,0
0.354,29.375,0,0,0,0,0
0.355,30.625,0,0,0,0,0
0.356,30.938,0,0,0,0,0
0.357,30.625,0,0,0,0,0
0.358,30.938,0,0,0,0,0
0.359,30,0,1,0,0,0
0.36,28.75,0,0,0,0,0
0.361,27.5,0,0,0,0,0
0.362,26.25,0,0,0,0,0
0.363,26.25,0,0,0,0,0
0.364,24.375,0,0,0,0,0
0.365,23.125,0,0,0,0,0
0.366,21.25,0,0,0,0,0
0.367,20,0,0,0,0,0
0.368,18.75,0,0,0,0,0
0.369,16.25,0,0,0,0,0
0.37,12.188,0,0,0,0,0
0.371,8.75,0,0,0,0,0
0.372,4.375,0,0,0,0,0
0.373,-0.625,0,0,0,0,0
0.374,-6.5625,0,0,0,0,0
0.375,-11.25,0,0,0,0,0
0.376,-15,0,0,0,0,0
0.377,-18.75,0,0,0,0,0
0.378,-20.313,0,0,0,0,0
0.379,-21.25,0,0,0,0,0
0.38,-21.875,0,0,0,0,0
0.381,-21.25,0,0,0,0,0
0.382,-19.688,0,0,0,0,0
0.383,-16.875,0,0,0,0,0
0.384,-14.375,0,0,0,0,0
0.385,-11.25,0,0,0,0,0
0.386,-8.4375,0,0,0,0,0
0.387,-5.625,0,0,0,0,0
0.388,-4.375,0,0,0,0,0
0.389,-2.5,0,0,0,0,0
0.39,-1.5625,0,0,0,0,0
0.391,0,0,0,0,0,0
0.392,1.5625,0,0,0,0,0
0.393,3.125,0,0,0,0,0
0.394,5.3125,0,0,0,0,0
0.395,7.5,0,0,0,0,0
0.396,10,0,0,0,0,0
0.397,11.25,0,0,0,0,0
0.398,13.438,0,0,0,0,0
0.399,14.375,0,0,0,0,0
0.4,15,0,0,0,0,0
0.401,15,0,0,0,0,0
0.402,16.25,0,0,0,0,0
0.403,16.875,0,0,0,0,0
0.404,17.188,0,0,0,0,0
0.405,17.5,0,0,0,0,0
0.406,16.875,0,0,0,0,0
0.407,17.5,0,0,0,0,0
0.408,16.875,0,0,0,0,0
0.409,16.875,0,0,0,0,0
0.41,16.875,0,0,0,0,0
0.411,16.875,0,0,0,0,0
0.412,16.875,0,0,0,0,0
0.413,16.875,0,0,0,0,0
0.414,17.188,0,0,0,0,0
0.415,16.875,0,0,0,0,0
0.416,17.188,0,0,0,0,0
0.417,16.25,0,0,0,0,0
0.418,17.5,0,0,0,0,0
0.419,17.5,0,0,0,0,0
0.42,17.5,0,0,0,0,0
0.421,18.125,0,0,0,0,0
0.422,18.125,0,0,0,0,0
0.423,18.125,0,0,0,0,0
0.424,17.5,0,0,0,0,0
0.425,16.875,0,0,0,0,0
0.426,15.625,0,0,0,0,0
0.427,15.625,0,0,0,0,0
0.428,15,0,0,0,0,0
0.429,15,0,0,0,0,0
0.43,15.313,0,0,0,0,0
0.431,15.625,0,0,0,0,0
0.432,15,0,0,0,0,0
0.433,13.75,0,0,0,0,0
0.434,13.75,0,0,0,0,0
0.435,13.75,0,0,0,0,0
0.436,13.75,0,0,0,0,0
0.437,13.125,0,0,0,0,0
0.438,12.5,0,0,0,0,0
0.439,11.875,0,0,0,0,0
0.44,11.25,0,0,0,0,0
0.441,10.625,0,0,0,0,0
0.442,9.6875,0,0,0,0,0
0.443,8.75,0,0,0,0,0
0.444,8.4375,0,0,0,0,0
0.445,8.75,0,0,0,0,0
0.446,8.125,0,0,0,0,0
0.447,8.125,0,0,0,0,0
0.448,7.5,0,0,0,0,0
0.449,8.125,0,0,0,0,0
0.45,6.5625,0,0,0,0,0
0.451,6.25,0,0,0,0,0
0.452,5,0,0,0,0,0
0.453,4.375,0,0,0,0,0
0.454,4.375,0,0,0,0,0
0.455,3.75,0,0,0,0,0
0.456,4.0625,0,0,0,0,0
0.457,3.75,0,0,0,0,0
0.458,3.4375,0,0,0,0,0
0.459,3.125,0,0,0,0,0
0.46,3.75,0,0,0,0,0
0.461,3.75,0,0,0,0,0
0.462,3.75,0,0,0,0,0
0.463,3.75,0,0,0,0,0
0.464,2.8125,0,0,0,0,0
0.465,2.5,0,0,0,0,0
0.466,2.1875,0,0,0,0,0
0.467,1.875,0,0,0,0,0
0.468,0.9375,0,0,0,0,0
0.469,0.625,0,0,0,0,0
0.47,0.625,0,0,0,0,0
0.471,0.625,0,0,0,0,0
0.472,0.625,0,0,0,0,0
0.473,0,0,0,0,0,0
0.474,0,0,0,0,0,0
0.475,-0.625,0,0,0,0,0
0.476,0,0,0,0,0,0
0.477,-0.625,0,0,0,0,0
0.478,-0.625,0,0,0,0,0
0.479,-0.625,0,0,0,0,0
0.48,-0.9375,0,0,1,0,0
0.481,-1.25,0,0,0,0,0
0.482,-0.3125,0,0,0,0,0
0.483,0,0,0,0,0,0
0.484,-0.3125,0,0,0,0,0
0.485,0,0,0,0,0,0
0.486,0,0,0,0,0,0
0.487,0.625,0,0,0,0,0
0.488,0,0,0,0,0,0
0.489,0.625,0,0,0,0,0
0.49,0.9375,0,0,0,0,0
0.491,1.25,0,0,0,0,0
0.492,1.25,0,0,0,0,0
0.493,1.25,0,0,0,0,0
0.494,1.25,0,0,0,0,0
0.495,0.625,0,0,0,0,0
0.496,0.9375,0,0,0,0,0
0.497,0.625,0,0,0,0,0
0.498,0.625,0,0,0,0,0
0.499,0.625,0,0,0,0,0
0.5,0.3125,0,0,0,0,0
0.501,1.25,0,0,0,0,0
0.502,1.5625,0,0,0,0,0
0.503,1.875,0,0,0,0,0
0.504,1.875,0,0,0,0,0
0.505,1.875,0,0,0,0,0
0.506,0.9375,0,0,0,0,0
0.507,1.25,0,0,0,0,0
0.508,1.25,0,0,0,0,0
0.509,1.25,0,0,0,0,0
0.51,1.25,0,0,0,0,0
0.511,1.25,0,0,0,0,0
0.512,1.5625,0,0,0,0,0
0.513,1.875,0,0,0,0,0
0.514,1.875,0,0,0,0,0
0.515,1.25,0,0,0,0,0
0.516,1.5625,0,0,0,0,0
0.517,0.625,0,0,0,0,0
0.518,1.25,0,0,0,0,0
0.519,0.625,0,0,0,0,0
0.52,0.625,0,0,0,0,0
0.521,0.625,0,0,0,0,0
0.522,0.9375,0,0,0,0,0
0.523,0.625,0,0,0,0,0
0.524,0.9375,0,0,0,0,0
0.525,1.875,0,0,0,0,0
0.526,0.625,0,0,0,0,0
0.527,0.625,0,0,0,0,0
0.528,0.625,0,0,0,0,0
0.529,0.625,0,0,0,0,0
0.53,0.625,0,0,0,0,0
0.531,0,0,0,0,0,0
0.532,0,0,0,0,0,0
0.533,0,0,0,0,0,0
0.534,0.625,0,0,0,0,0
0.535,0,0,0,0,0,0
0.536,0.9375,0,0,0,0,0
0.537,0.625,0,0,0,0,0
0.538,0.625,0,0,0,0,0
0.539,0.625,0,0,0,0,0
0.54,0.625,0,0,0,0,0
0.541,0,0,0,0,0,0
0.542,0.9375,0,0,0,0,0
0.543,1.25,0,0,0,0,0
0.544,0.625,0,0,0,0,0
0.545,0.625,0,0,0,0,0
0.546,0,0,0,0,0,0
0.547,-0.625,0,0,0,0,0
0.548,-0.625,0,0,0,0,0
0.549,-0.625,0,0,0,0,0
0.55,-0.3125,0,0,0,0,0
0.551,0,0,0,0,0,0
0.552,-0.625,0,0,0,0,0
0.553,-0.625,0,0,0,0,0
0.554,-0.625,0,0,0,0,0
0.555,-0.625,0,0,0,0,0
0.556,-0.9375,0,0,0,0,0
0.557,-1.25,0,0,0,0,0
0.558,-1.25,0,0,0,0,0
0.559,-1.25,0,0,0,0,0
0.56,-1.875,0,0,0,0,0
0.561,-1.875,0,0,0,0,0
0.562,-1.875,0,0,0,0,0
0.563,-1.875,0,0,0,0,0
0.564,-2.5,0,0,0,0,0
0.565,-1.875,0,0,0,0,0
0.566,-2.5,0,0,0,0,0
0.567,-2.5,0,0,0,0,0
0.568,-2.5,0,0,0,0,0
0.569,-1.875,0,0,0,0,0
0.57,-2.5,0,0,0,0,0
0.571,-2.5,0,0,0,0,0
0.572,-2.1875,0,0,0,0,0
0.573,-2.5,0,0,0,0,0
0.574,-2.5,0,0,0,0,0
0.575,-2.5,0,0,0,0,0
0.576,-1.875,0,0,0,0,0
0.577,-2.5,0,0,0,0,0
0.578,-2.8125,0,0,0,0,0
0.579,-3.75,0,0,0,0,0
0.58,-3.75,0,0,0,0,0
0.581,-3.75,0,0,0,0,0
0.582,-3.75,0,0,0,0,0
0.583,-3.75,0,0,0,0,0
0.584,-4.0625,0,0,0,0,0
0.585,-3.75,0,0,0,0,0
0.586,-4.375,0,0,0,0,0
0.587,-3.75,0,0,0,0,0
0.588,-4.6875,0,0,0,0,0
0.589,-5,0,0,0,0,0
0.59,-5,0,0,0,0,0
0.591,-5,0,0,0,0,0
0.592,-5,0,0,0,0,0
0.593,-5.625,0,0,0,0,0
0.594,-5.9375,0,0,0,0,0
0.595,-6.25,0,0,0,0,0
0.596,-6.25,0,0,0,0,0
0.597,-6.875,0,0,0,0,0
0.598,-6.875,0,0,0,0,0
0.599,-6.875,0,0,0,0,0
0.6,-7.5,0,0,0,0,0
0.601,-7.5,0,0,0,0,0
0.602,-7.8125,0,0,0,0,0
0.603,-8.125,0,0,0,0,0
0.604,-9.0625,0,0,0,0,0
0.605,-9.375,0,0,0,0,0
0.606,-9.0625,0,0,0,0,0
0.607,-9.375,0,0,0,0,0
0.608,-9.375,0,0,0,0,0
0.609,-9.375,0,0,0,0,0
0.61,-9.6875,0,0,0,0,0
0.611,-10,0,0,0,0,0
0.612,-9.6875,0,0,0,0,0
0.613,-10,0,0,0,0,0
0.614,-9.6875,0,0,0,0,0
0.615,-10,0,0,0,0,0
0.616,-10.313,0,0,0,0,0
0.617,-10.625,0,0,0,0,0
0.618,-10.313,0,0,0,0,0
0.619,-10,0,0,0,0,0
0.62,-10.625,0,0,0,0,0
0.621,-10.625,0,0,0,0,0
0.622,-10.625,0,0,0,0,0
0.623,-10.625,0,0,0,0,0
0.624,-10.938,0,0,0,0,0
0.625,-10.625,0,0,0,0,0
0.626,-11.25,0,0,0,0,0
0.627,-11.875,0,0,0,0,0
0.628,-11.875,0,0,0,0,0
0.629,-11.875,0,0,0,0,0
0.63,-12.188,0,0,0,0,0
0.631,-11.875,0,0,0,0,0
0.632,-11.875,0,0,0,0,0
0.633,-11.875,0,0,0,0,0
0.634,-11.875,0,0,0,0,0
0.635,-11.875,0,0,0,0,0
0.636,-11.563,0,0,0,0,0
0.637,-12.5,0,0,0,0,0
0.638,-12.5,0,0,0,0,0
0.639,-12.5,0,0,0,1,0
0.64,-12.5,0,0,0,0,0
0.641,-12.5,0,0,0,0,0
0.642,-12.188,0,0,0,0,0
0.643,-11.875,0,0,0,0,0
0.644,-12.188,0,0,0,0,0
0.645,-11.875,0,0,0,0,0
0.646,-12.813,0,0,0,0,0
0.647,-12.5,0,0,0,0,0
0.648,-12.188,0,0,0,0,0
0.649,-11.875,0,0,0,0,0
0.65,-12.188,0,0,0,0,0
0.651,-12.5,0,0,0,0,0
0.652,-12.5,0,0,0,0,0
0.653,-12.5,0,0,0,0,0
0.654,-12.5,0,0,0,0,0
0.655,-12.5,0,0,0,0,0
0.656,-11.875,0,0,0,0,0
0.657,-11.875,0,0,0,0,0
0.658,-11.25,0,0,0,0,0
0.659,-11.875,0,0,0,0,0
0.66,-10.938,0,0,0,0,0
0.661,-10.625,0,0,0,0,0
0.662,-10.625,0,0,0,0,0
0.663,-10,0,0,0,0,0
0.664,-10.938,0,0,0,0,0
0.665,-10.625,0,0,0,0,0
0.666,-10.938,0,0,0,0,0
0.667,-10.625,0,0,0,0,0
0.668,-10.625,0,0,0,0,0
0.669,-10,0,0,0,0,0
0.67,-9.6875,0,0,0,0,0
0.671,-9.375,0,0,0,0,0
0.672,-9.6875,0,0,0,0,0
0.673,-9.375,0,0,0,0,0
0.674,-8.75,0,0,0,0,0
0.675,-8.75,0,0,0,0,0
0.676,-8.125,0,0,0,0,0
0.677,-8.125,0,0,0,0,0
0.678,-7.5,0,0,0,0,0
0.679,-7.5,0,0,0,0,0
0.68,-7.8125,0,0,0,0,0
0.681,-7.5,0,0,0,0,0
0.682,-6.875,0,0,0,0,0
0.683,-6.25,0,0,0,0,0
0.684,-5.9375,0,0,0,0,0
0.685,-5,0,0,0,0,0
0.686,-5,0,0,0,0,0
0.687,-3.75,0,0,0,0,0
0.688,-4.0625,0,0,0,0,0
0.689,-3.75,0,0,0,0,0
0.69,-4.0625,0,0,0,0,0
0.691,-3.75,0,0,0,0,0
0.692,-4.0625,0,0,0,0,0
0.693,-3.75,0,0,0,0,0
0.694,-3.75,0,0,0,0,0
0.695,-3.125,0,0,0,0,0
0.696,-2.8125,0,0,0,0,0
0.697,-2.5,0,0,0,0,0
0.698,-2.1875,0,0,0,0,0
0.699,-2.5,0,0,0,0,0
0.7,-1.5625,0,0,0,0,0
0.701,-1.25,0,0,0,0,0
0.702,-0.625,0,0,0,0,0
0.703,-0.625,0,0,0,0,0
0.704,-0.625,0,0,0,0,0
0.705,0,0,0,0,0,0
0.706,0,0,0,0,0,0
0.707,0.625,0,0,0,0,0
0.708,0,0,0,0,0,0
0.709,0.625,0,0,0,0,0
0.71,0.3125,0,0,0,0,0
0.711,0.625,0,0,0,0,0
0.712,0.9375,0,0,0,0,0
0.713,1.25,0,0,0,0,0
0.714,1.5625,0,0,0,0,0
0.715,1.25,0,0,0,0,0
0.716,1.5625,0,0,0,0,0
0.717,1.875,0,0,0,0,0
0.718,1.875,0,0,0,0,0
0.719,2.5,0,0,0,0,0
0.72,2.5,0,0,0,0,0
0.721,2.5,0,0,0,0,0
0.722,2.5,0,0,0,0,0
0.723,2.5,0,0,0,0,0
0.724,2.1875,0,0,0,0,0
0.725,2.5,0,0,0,0,0
0.726,2.5,0,0,0,0,0
0.727,2.5,0,0,0,0,0
0.728,2.8125,0,0,0,0,0
0.729,3.125,0,0,0,0,0
0.73,3.125,0,0,0,0,0
0.731,3.125,0,0,0,0,0
0.732,3.75,0,0,0,0,0
0.733,3.75,0,0,0,0,0
0.734,4.375,0,0,0,0,0
0.735,4.375,0,0,0,0,0
0.736,4.0625,0,0,0,0,0
0.737,3.75,0,0,0,0,0
0.738,3.125,0,0,0,0,0
0.739,3.75,0,0,0,0,1
0.74,3.75,0,0,0,0,0
0.741,3.75,0,0,0,0,0
0.742,4.0625,0,0,0,0,0
0.743,4.375,0,0,0,0,0
0.744,3.4375,0,0,0,0,0
0.745,3.125,0,0,0,0,0
0.746,3.4375,0,0,0,0,0
0.747,3.75,0,0,0,0,0
0.748,3.4375,0,0,0,0,0
0.749,3.75,0,0,0,0,0
0.75,3.75,0,0,0,0,0
0.751,3.75,0,0,0,0,0
0.752,2.8125,0,0,0,0,0
0.753,2.5,0,0,0,0,0
0.754,2.8125,0,0,0,0,0
0.755,3.125,0,0,0,0,0
0.756,2.5,0,0,0,0,0
0.757,2.5,0,0,0,0,0
0.758,2.5,0,0,0,0,0
0.759,2.5,0,0,0,0,0
0.76,2.8125,0,0,0,0,0
0.761,3.125,0,0,0,0,0
0.762,3.125,0,0,0,0,0
0.763,3.125,0,0,0,0,0
0.764,3.125,0,0,0,0,0
0.765,3.125,0,0,0,0,0
0.766,2.8125,0,0,0,0,0
0.767,2.5,0,0,0,0,0
0.768,2.5,0,0,0,0,0
0.769,2.5,0,0,0,0,0
0.77,2.5,0,0,0,0,0
0.771,2.5,0,0,0,0,0
0.772,2.5,0,0,0,0,0
0.773,2.5,0,0,0,0,0
0.774,2.1875,0,0,0,0,0
0.775,1.875,0,0,0,0,0
0.776,2.5,0,0,0,0,0
0.777,1.875,0,0,0,0,0
0.778,2.1875,0,0,0,0,0
0.779,2.5,0,0,0,0,0
0.78,2.5,0,0,0,0,0
0.781,2.5,0,0,0,0,0
0.782,2.5,0,0,0,0,0
0.783,2.5,0,0,0,0,0
0.784,2.5,0,0,0,0,0
0.785,2.5,0,0,0,0,0
0.786,2.5,0,0,0,0,0
0.787,2.5,0,0,0,0,0
0.788,1.875,0,0,0,0,0
0.789,2.5,0,0,0,0,0
0.79,2.8125,0,0,0,0,0
0.791,3.125,0,0,0,0,0
0.792,3.125,0,0,0,0,0
0.793,3.125,0,0,0,0,0
0.794,3.125,0,0,0,0,0
0.795,2.5,0,0,0,0,0
0.796,3.125,0,0,0,0,0
0.797,3.125,0,0,0,0,0
0.798,2.8125,0,0,0,0,0
0.799,2.5,0,0,0,0,0
0.8,2.1875,0,0,0,0,0
0.801,1.875,0,0,0,0,0
0.802,1.875,0,0,0,0,0
0.803,1.875,0,0,0,0,0
0.804,1.5625,0,0,0,0,0
0.805,1.25,0,0,0,0,0
0.806,0.9375,0,0,0,0,0
0.807,0.625,0,0,0,0,0
0.808,1.5625,0,0,0,0,0
0.809,1.25,0,0,0,0,0
0.81,1.5625,0,0,0,0,0
0.811,1.875,0,0,0,0,0
0.812,1.875,0,0,0,0,0
0.813,1.25,0,0,0,0,0
0.814,1.5625,0,0,0,0,0
0.815,1.25,0,0,0,0,0
0.816,1.5625,0,0,0,0,0
0.817,1.25,0,0,0,0,0
0.818,1.25,0,0,0,0,0
0.819,1.25,0,0,0,0,0
0.82,1.5625,0,0,0,0,0
0.821,1.875,0,0,0,0,0
0.822,1.5625,0,0,0,0,0
0.823,1.25,0,0,0,0,0
0.824,1.25,0,0,0,0,0
0.825,1.25,0,0,0,0,0
0.826,2.1875,0,0,0,0,0
0.827,2.5,0,0,0,0,0
0.828,1.875,0,0,0,0,0
0.829,2.5,0,0,0,0,0
0.83,2.8125,0,0,0,0,0
0.831,2.5,0,0,0,0,0
0.832,2.5,0,0,0,0,0
0.833,2.5,0,0,0,0,0
0.834,2.5,0,0,0,0,0
0.835,2.5,0,0,0,0,0
0.836,2.5,0,0,0,0,0
0.837,2.5,0,0,0,0,0
0.838,2.1875,0,0,0,0,0
0.839,1.875,0,0,0,0,0
0.84,1.875,0,0,0,0,0
0.841,1.875,0,0,0,0,0
0.842,1.875,0,0,0,0,0
0.843,1.875,0,0,0,0,0
0.844,1.875,0,0,0,0,0
0.845,1.875,0,0,0,0,0
0.846,2.1875,0,0,0,0,0
0.847,2.5,0,0,0,0,0
0.848,2.5,0,0,0,0,0
0.849,2.5,0,0,0,0,0
0.85,2.5,0,0,0,0,0
0.851,2.5,0,0,0,0,0
0.852,2.5,0,0,0,0,0
0.853,2.5,0,0,0,0,0
0.854,2.1875,0,0,0,0,0
0.855,1.875,0,0,0,0,0
0.856,2.1875,0,0,0,0,0
0.857,2.5,0,0,0,0,0
0.858,2.1875,0,0,0,0,0
0.859,2.5,0,0,0,0,0
0.86,2.1875,0,0,0,0,0
0.861,1.875,0,0,0,0,0
0.862,2.5,0,0,0,0,0
0.863,1.875,0,0,0,0,0
0.864,2.5,0,0,0,0,0
0.865,1.875,0,0,0,0,0
0.866,1.875,0,0,0,0,0
0.867,1.875,0,0,0,0,0
0.868,2.5,0,0,0,0,0
0.869,1.875,0,0,0,0,0
0.87,2.1875,0,0,0,0,0
0.871,2.5,0,0,0,0,0
0.872,2.5,0,0,0,0,0
0.873,2.5,0,0,0,0,0
0.874,2.5,0,0,0,0,0
0.875,2.5,0,0,0,0,0
0.876,2.5,0,0,0,0,0
0.877,2.5,0,0,0,0,0
0.878,1.875,0,0,0,0,0
0.879,1.25,0,0,0,0,0
0.88,2.5,0,0,0,0,0
0.881,2.5,0,0,0,0,0
0.882,2.5,0,0,0,0,0
0.883,2.5,0,0,0,0,0
0.884,1.5625,0,0,0,0,0
0.885,1.875,0,0,0,0,0
0.886,0.9375,0,0,0,0,0
0.887,1.25,0,0,0,0,0
0.888,0.3125,0,0,0,0,0
0.889,0.625,0,0,0,0,0
0.89,-0.3125,0,0,0,0,0
0.891,0,0,0,0,0,0
0.892,0.3125,0,0,0,0,0
0.893,0,0,0,0,0,0
0.894,0.3125,0,0,0,0,0
0.895,0,0,0,0,0,0
0.896,0.625,0,0,0,0,0
0.897,0,0,0,0,0,0
0.898,0.3125,0,0,0,0,0
0.899,0,0,0,0,0,0
0.9,0.625,0,0,0,0,0
0.901,0.625,0,0,0,0,0
0.902,0.9375,0,0,0,0,0
0.903,1.25,0,0,0,0,0
0.904,0.3125,0,0,0,0,0
0.905,0.625,0,0,0,0,0
0.906,0.3125,0,0,0,0,0
0.907,0.625,0,0,0,0,0
0.908,0.9375,0,0,0,0,0
0.909,0.625,0,0,0,0,0
0.91,0.625,0,0,0,0,0
0.911,0.625,0,0,0,0,0
0.912,0.9375,0,0,0,0,0
0.913,1.25,0,0,0,0,0
0.914,1.25,0,0,0,0,0
0.915,1.25,0,0,0,0,0
0.916,0.625,0,0,0,0,0
0.917,1.25,0,0,0,0,0
0.918,1.25,0,0,0,0,0
0.919,1.25,0,0,0,0,0
0.92,1.25,0,0,0,0,0
0.921,1.25,0,0,0,0,0
0.922,1.25,0,0,0,0,0
0.923,1.25,0,0,0,0,0
0.924,1.25,0,0,0,0,0
0.925,1.875,0,0,0,0,0
0.926,2.1875,0,0,0,0,0
0.927,1.875,0,0,0,0,0
0.928,1.875,0,0,0,0,0
0.929,1.875,0,0,0,0,0
0.93,1.875,0,0,0,0,0
0.931,1.875,0,0,0,0,0
0.932,1.5625,0,0,0,0,0
0.933,1.875,0,0,0,0,0
0.934,2.1875,0,0,0,0,0
0.935,2.5,0,0,0,0,0
0.936,1.875,0,0,0,0,0
0.937,1.875,0,0,0,0,0
0.938,1.875,0,0,0,0,0
0.939,1.875,0,0,0,0,0
0.94,2.8125,0,0,0,0,0
0.941,3.125,0,0,0,0,0
0.942,3.125,0,0,0,0,0
0.943,3.125,0,0,0,0,0
0.944,3.4375,0,0,0,0,0
0.945,3.125,0,0,0,0,0
0.946,3.75,0,0,0,0,0
0.947,3.125,0,0,0,0,0
0.948,3.75,0,0,0,0,0
0.949,3.75,0,0,0,0,0
0.95,3.75,0,0,0,0,0
0.951,3.75,0,0,0,0,0
0.952,3.75,0,0,0,0,0
0.953,3.75,0,0,0,0,0
0.954,3.75,0,0,0,0,0
0.955,4.375,0,0,0,0,0
0.956,4.0625,0,0,0,0,0
0.957,3.75,0,0,0,0,0
0.958,3.75,0,0,0,0,0
0.959,3.75,0,0,0,0,0
0.96,4.0625,0,0,0,0,0
0.961,4.375,0,0,0,0,0
0.962,4.6875,0,0,0,0,0
0.963,5,0,0,0,0,0
0.964,4.6875,0,0,0,0,0
0.965,4.375,0,0,0,0,0
0.966,4.0625,0,0,0,0,0
0.967,3.75,0,0,0,0,0
0.968,4.6875,0,0,0,0,0
0.969,4.375,0,0,0,0,0
0.97,4.0625,0,0,0,0,0
0.971,4.375,0,0,0,0,0
0.972,4.0625,0,0,0,0,0
0.973,3.75,0,0,0,0,0
0.974,4.0625,0,0,0,0,0
0.975,4.375,0,0,0,0,0
0.976,4.375,0,0,0,0,0
0.977,4.375,0,0,0,0,0
0.978,4.375,0,0,0,0,0
0.979,4.375,0,0,0,0,0
0.98,4.6875,0,0,0,0,0
0.981,5,0,0,0,0,0
0.982,4.6875,0,0,0,0,0
0.983,4.375,0,0,0,0,0
0.984,4.375,0,0,0,0,0
0.985,3.75,0,0,0,0,0
0.986,4.375,0,0,0,0,0
0.987,3.75,0,0,0,0,0
0.988,4.0625,0,0,0,0,0
0.989,4.375,0,0,0,0,0
0.99,3.75,0,0,0,0,0
0.991,4.375,0,0,0,0,0
0.992,3.4375,0,0,0,0,0
0.993,3.75,0,0,0,0,0
0.994,3.4375,0,0,0,0,0
0.995,3.75,0,0,0,0,0
0.996,3.75,0,0,0,0,0
0.997,3.125,0,0,0,0,0
0.998,2.1875,0,0,0,0,0
0.999,2.5,0,0,0,0,0
1,2.8125,0,0,0,0,0
1.001,2.5,0,0,0,0,0
1.002,2.5,0,0,0,0,0
1.003,2.5,0,0,0,0,0
1.004,2.5,0,0,0,0,0
1.005,1.875,0,0,0,0,0
1.006,1.875,0,0,0,0,0
1.007,1.875,0,0,0,0,0
1.008,1.875,0,0,0,0,0
1.009,1.25,0,0,0,0,0
1.01,1.5625,0,0,0,0,0
1.011,1.875,0,0,0,0,0
1.012,1.25,0,0,0,0,0
1.013,1.875,0,0,0,0,0
1.014,0.625,0,0,0,0,0
1.015,0.625,0,0,0,0,0
1.016,0.3125,0,0,0,0,0
1.017,0,0,0,0,0,0
1.018,0.3125,0,0,0,0,0
1.019,0.625,0,0,0,0,0
1.02,0.9375,0,0,0,0,0
1.021,0.625,0,0,0,0,0
1.022,0.9375,0,0,0,0,0
1.023,0,0,0,0,0,0
1.024,0.9375,0,0,0,0,0
1.025,0.625,0,0,0,0,0
1.026,0.9375,0,0,0,0,0
1.027,0.625,0,0,0,0,0
1.028,0.9375,0,0,0,0,0
1.029,1.25,0,0,0,0,0
1.03,1.25,0,0,0,0,0
1.031,1.25,0,0,0,0,0
1.032,0.3125,0,0,0,0,0
1.033,0.625,0,0,0,0,0
1.034,0.3125,0,0,0,0,0
1.035,0,0,0,0,0,0
1.036,-0.625,0,0,0,0,0
1.037,0,0,0,0,0,0
1.038,0,0,0,0,0,0
1.039,0,0,0,0,0,0
1.04,0.625,0,0,0,0,0
1.041,0.625,0,0,0,0,0
1.042,0.625,0,0,0,0,0
1.043,0.625,0,0,0,0,0
1.044,0.3125,0,0,0,0,0
1.045,0,0,0,0,0,0
1.046,0.625,0,0,0,0,0
1.047,0.625,0,0,0,0,0
1.048,0.625,0,0,0,0,0
1.049,0.625,0,0,0,0,0
1.05,0.625,0,0,0,0,0
1.051,0.625,0,0,0,0,0
1.052,0.3125,0,0,0,0,0
1.053,0.625,0,0,0,0,0
1.054,-0.3125,0,0,0,0,0
1.055,0,0,0,0,0,0
1.056,-0.625,0,0,0,0,0
1.057,0,0,0,0,0,0
1.058,-0.625,0,0,0,0,0
1.059,0,0,0,0,0,0
1.06,-0.3125,0,0,0,0,0
1.061,0,0,0,0,0,0
1.062,0,0,0,0,0,0
1.063,0,0,0,0,0,0
1.064,0.3125,0,0,0,0,0
1.065,0,0,0,0,0,0
1.066,0,0,0,0,0,0
1.067,0,0,0,0,0,0
1.068,0.3125,0,0,0,0,0
1.069,0,0,0,0,0,0
1.07,0,0,0,0,0,0
1.071,0,0,0,0,0,0
1.072,0,0,0,0,0,0
1.073,0,0,0,0,0,0
1.074,0,0,0,0,0,0
1.075,0.625,0,0,0,0,0
1.076,-0.3125,0,0,0,0,0
1.077,0,0,0,0,0,0
1.078,-0.625,0,0,0,0,0
1.079,-0.625,0,0,0,0,0
1.08,-0.9375,0,0,0,0,0
1.081,-1.25,0,0,0,0,0
1.082,0,0,0,0,0,0
1.083,0,0,0,0,0,0
1.084,0.3125,0,0,0,0,0
1.085,-0.625,0,0,0,0,0
1.086,-0.9375,0,0,0,0,0
1.087,-1.25,0,0,0,0,0
1.088,-0.3125,0,0,0,0,0
1.089,0,0,0,0,0,0
1.09,-0.9375,0,0,0,0,0
1.091,-0.625,0,0,0,0,0
1.092,-0.625,0,0,0,0,0
1.093,-0.625,0,0,0,0,0
1.094,-0.625,0,0,0,0,0
1.095,-0.625,0,0,0,0,0
1.096,-0.625,0,0,0,0,0
1.097,0,0,0,0,0,0
1.098,0.3125,0,0,0,0,0
1.099,0.625,0,0,0,0,0
1.1,0,0,0,0,0,0
1.101,0,0,0,0,0,0
1.102,0.3125,0,0,0,0,0
1.103,0.625,0,0,0,0,0
1.104,0.625,0,0,0,0,0
1.105,0.625,0,0,0,0,0
1.106,0,0,0,0,0,0
1.107,0,0,0,0,0,0
1.108,-0.625,0,0,0,0,0
1.109,0,1,0,0,0,0
1.11,-0.625,0,0,0,0,0
1.111,0,0,0,0,0,0
1.112,-0.625,0,0,0,0,0
1.113,0,0,0,0,0,0
1.114,-0.3125,0,0,0,0,0
1.115,0,0,0,0,0,0
1.116,0.9375,0,0,0,0,0
1.117,1.25,0,0,0,0,0
1.118,2.1875,0,0,0,0,0
1.119,3.125,0,0,0,0,0
1.12,3.125,0,0,0,0,0
1.121,3.75,0,0,0,0,0
1.122,4.375,0,0,0,0,0
1.123,5.625,0,0,0,0,0
1.124,6.25,0,0,0,0,0
1.125,6.875,0,0,0,0,0
1.126,7.8125,0,0,0,0,0
1.127,8.75,0,0,0,0,0
1.128,9.0625,0,0,0,0,0
1.129,10.625,0,0,0,0,0
1.13,11.875,0,0,0,0,0
1.131,13.125,0,0,0,0,0
1.132,14.375,0,0,0,0,0
1.133,15,0,0,0,0,0
1.134,15.625,0,0,0,0,0
1.135,16.875,0,0,0,0,0
1.136,18.75,0,1,0,0,0
1.137,20,0,0,0,0,0
1.138,21.25,0,0,0,0,0
1.139,23.125,0,0,0,0,0
1.14,25,0,0,0,0,0
1.141,26.875,0,0,0,0,0
1.142,28.438,0,0,0,0,0
1.143,28.75,0,0,0,0,0
1.144,29.688,0,0,0,0,0
1.145,29.375,0,0,0,0,0
1.146,29.063,0,0,0,0,0
1.147,29.375,0,0,0,0,0
1.148,28.125,0,0,0,0,0
1.149,26.875,0,0,0,0,0
1.15,25.938,0,0,0,0,0
1.151,25,0,0,0,0,0
1.152,25,0,0,0,0,0
1.153,23.125,0,0,0,0,0
1.154,22.188,0,0,0,0,0
1.155,20.625,0,0,0,0,0
1.156,18.438,0,0,0,0,0
1.157,15.625,0,0,0,0,0
1.158,12.188,0,0,0,0,0
1.159,8.125,0,0,0,0,0
1.16,4.6875,0,0,0,0,0
1.161,0,0,0,0,0,0
1.162,-4.6875,0,0,0,0,0
1.163,-10,0,0,0,0,0
1.164,-14.063,0,0,0,0,0
1.165,-17.5,0,0,0,0,0
1.166,-20.313,0,0,0,0,0
1.167,-20.625,0,0,0,0,0
1.168,-20.938,0,0,0,0,0
1.169,-20.625,0,0,0,0,0
1.17,-19.063,0,0,0,0,0
1.171,-17.5,0,0,0,0,0
1.172,-15,0,0,0,0,0
1.173,-12.5,0,0,0,0,0
1.174,-9.6875,0,0,0,0,0
1.175,-6.875,0,0,0,0,0
1.176,-4.0625,0,0,0,0,0
1.177,-3.125,0,0,0,0,0
1.178,-1.25,0,0,0,0,0
1.179,0,0,0,0,0,0
1.18,1.875,0,0,0,0,0
1.181,3.125,0,0,0,0,0
1.182,4.6875,0,0,0,0,0
1.183,6.875,0,0,0,0,0
1.184,7.8125,0,0,0,0,0
1.185,9.375,0,0,0,0,0
1.186,10.938,0,0,0,0,0
1.187,13.125,0,0,0,0,0
1.188,13.75,0,0,0,0,0
1.189,15,0,0,0,0,0
1.19,15.938,0,0,0,0,0
1.191,16.875,0,0,0,0,0
1.192,16.563,0,0,0,0,0
1.193,16.25,0,0,0,0,0
1.194,16.563,0,0,0,0,0
1.195,16.25,0,0,0,0,0
1.196,17.188,0,0,0,0,0
1.197,17.5,0,0,0,0,0
1.198,18.125,0,0,0,0,0
1.199,18.125,0,0,0,0,0
1.2,17.813,0,0,0,0,0
1.201,17.5,0,0,0,0,0
1.202,17.188,0,0,0,0,0
1.203,17.5,0,0,0,0,0
1.204,17.188,0,0,0,0,0
1.205,17.5,0,0,0,0,0
1.206,16.875,0,0,0,0,0
1.207,17.5,0,0,0,0,0
1.208,17.5,0,0,0,0,0
1.209,17.5,0,0,0,0,0
1.21,17.5,0,0,0,0,0
1.211,17.5,0,0,0,0,0
1.212,17.5,0,0,0,0,0
1.213,16.875,0,0,0,0,0
1.214,16.563,0,0,0,0,0
1.215,15.625,0,0,0,0,0
1.216,15.625,0,0,0,0,0
1.217,15,0,0,0,0,0
1.218,14.688,0,0,0,0,0
1.219,14.375,0,0,0,0,0
1.22,14.375,0,0,0,0,0
1.221,14.375,0,0,0,0,0
1.222,14.063,0,0,0,0,0
1.223,13.75,0,0,0,0,0
1.224,12.5,0,0,0,0,0
1.225,11.875,0,0,0,0,0
1.226,11.25,0,0,0,0,0
1.227,10.625,0,0,0,0,0
1.228,10.313,0,0,0,0,0
1.229,10,0,0,0,0,0
1.23,9.0625,0,0,0,0,0
1.231,8.125,0,0,0,0,0
1.232,7.5,0,0,0,0,0
1.233,6.875,0,0,0,0,0
1.234,6.875,0,0,0,0,0
1.235,6.25,0,0,0,0,0
1.236,6.5625,0,0,0,0,0
1.237,5.625,0,0,0,0,0
1.238,5.625,0,0,0,0,0
1.239,4.375,0,0,0,0,0
1.24,4.0625,0,0,0,0,0
1.241,3.125,0,0,0,0,0
1.242,3.125,0,0,0,0,0
1.243,3.125,0,0,0,0,0
1.244,2.5,0,0,0,0,0
1.245,2.5,0,0,0,0,0
1.246,2.1875,0,0,0,0,0
1.247,2.5,0,0,0,0,0
1.248,2.5,0,0,0,0,0
1.249,2.5,0,0,0,0,0
1.25,1.5625,0,0,0,0,0
1.251,1.25,0,0,0,0,0
1.252,1.5625,0,0,0,0,0
1.253,1.25,0,0,0,0,0
1.254,1.5625,0,0,0,0,0
1.255,1.25,0,0,0,0,0
1.256,0.3125,0,0,0,0,0
1.257,-0.625,0,0,0,0,0
1.258,-0.9375,0,0,0,0,0
1.259,-1.25,0,0,0,0,0
1.26,-1.25,0,0,0,0,0
1.261,-1.25,0,0,0,0,0
1.262,-1.25,0,0,0,0,0
1.263,-0.625,0,0,0,0,0
1.264,-1.875,0,0,0,0,0
1.265,-1.875,0,0,0,0,0
1.266,-2.1875,0,0,0,0,0
1.267,-1.875,0,0,0,0,0
1.268,-1.875,0,0,0,0,0
1.269,-1.875,0,0,0,0,0
1.27,-2.1875,0,0,0,0,0
1.271,-1.875,0,0,0,0,0
1.272,-2.1875,0,0,0,0,0
1.273,-2.5,0,0,1,0,0
1.274,-1.5625,0,0,0,0,0
1.275,-1.25,0,0,0,0,0
1.276,-0.9375,0,0,0,0,0
1.277,-1.875,0,0,0,0,0
1.278,-1.5625,0,0,0,0,0
1.279,-1.875,0,0,0,0,0
1.28,-1.875,0,0,0,0,0
1.281,-1.875,0,0,0,0,0
1.282,-1.5625,0,0,0,0,0
1.283,-1.25,0,0,0,0,0
1.284,-1.875,0,0,0,0,0
1.285,-1.25,0,0,0,0,0
1.286,-1.5625,0,0,0,0,0
1.287,-1.875,0,0,0,0,0
1.288,-1.5625,0,0,0,0,0
1.289,-1.875,0,0,0,0,0
1.29,-1.25,0,0,0,0,0
1.291,-1.25,0,0,0,0,0
1.292,-1.5625,0,0,0,0,0
1.293,-1.875,0,0,0,0,0
1.294,-1.5625,0,0,0,0,0
1.295,-1.875,0,0,0,0,0
1.296,-1.25,0,0,0,0,0
1.297,-1.25,0,0,0,0,0
1.298,-1.25,0,0,0,0,0
1.299,-1.25,0,0,0,0,0
1.3,-0.9375,0,0,0,0,0
1.301,-0.625,0,0,0,0,0
1.302,-0.625,0,0,0,0,0
1.303,-0.625,0,0,0,0,0
1.304,-0.9375,0,0,0,0,0
1.305,0,0,0,0,0,0
1.306,-0.9375,0,0,0,0,0
1.307,-0.625,0,0,0,0,0
1.308,-1.25,0,0,0,0,0
1.309,-1.25,0,0,0,0,0
1.31,-0.9375,0,0,0,0,0
1.311,-0.625,0,0,0,0,0
1.312,-1.5625,0,0,0,0,0
1.313,-1.875,0,0,0,0,0
1.314,-0.9375,0,0,0,0,0
1.315,-1.25,0,0,0,0,0
1.316,-0.9375,0,0,0,0,0
1.317,-1.25,0,0,0,0,0
1.318,-0.9375,0,0,0,0,0
1.319,-0.625,0,0,0,0,0
1.32,-0.9375,0,0,0,0,0
1.321,-0.625,0,0,0,0,0
1.322,-0.9375,0,0,0,0,0
1.323,-0.625,0,0,0,0,0
1.324,-1.25,0,0,0,0,0
1.325,-0.625,0,0,0,0,0
1.326,-1.25,0,0,0,0,0
1.327,-1.25,0,0,0,0,0
1.328,-1.25,0,0,0,0,0
1.329,-1.25,0,0,0,0,0
1.33,-2.1875,0,0,0,0,0
1.331,-1.875,0,0,0,0,0
1.332,-1.5625,0,0,0,0,0
1.333,-1.875,0,0,0,0,0
1.334,-1.875,0,0,0,0,0
1.335,-1.875,0,0,0,0,0
1.336,-1.875,0,0,0,0,0
1.337,-1.875,0,0,0,0,0
1.338,-2.1875,0,0,0,0,0
1.339,-2.5,0,0,0,0,0
1.34,-2.1875,0,0,0,0,0
1.341,-2.5,0,0,0,0,0
1.342,-2.8125,0,0,0,0,0
1.343,-3.125,0,0,0,0,0
1.344,-3.125,0,0,0,0,0
1.345,-3.125,0,0,0,0,0
1.346,-2.8125,0,0,0,0,0
1.347,-2.5,0,0,0,0,0
1.348,-2.5,0,0,0,0,0
1.349,-3.125,0,0,0,0,0
1.35,-3.125,0,0,0,0,0
1.351,-3.125,0,0,0,0,0
1.352,-3.4375,0,0,0,0,0
1.353,-4.375,0,0,0,0,0
1.354,-3.4375,0,0,0,0,0
1.355,-3.75,0,0,0,0,0
1.356,-3.75,0,0,0,0,0
1.357,-3.75,0,0,0,0,0
1.358,-3.125,0,0,0,0,0
1.359,-3.75,0,0,0,0,0
1.36,-4.0625,0,0,0,0,0
1.361,-4.375,0,0,0,0,0
1.362,-4.6875,0,0,0,0,0
1.363,-4.375,0,0,0,0,0
1.364,-4.375,0,0,0,0,0
1.365,-3.75,0,0,0,0,0
1.366,-4.6875,0,0,0,0,0
1.367,-5,0,0,0,0,0
1.368,-5.625,0,0,0,0,0
1.369,-5.625,0,0,0,0,0
1.37,-5.625,0,0,0,0,0
1.371,-5.625,0,0,0,0,0
1.372,-5.3125,0,0,0,0,0
1.373,-5.625,0,0,0,0,0
1.374,-5.3125,0,0,0,0,0
1.375,-5.625,0,0,0,0,0
1.376,-5.625,0,0,0,0,0
1.377,-6.875,0,0,0,0,0
1.378,-6.875,0,0,0,0,0
1.379,-6.875,0,0,0,0,0
1.38,-6.875,0,0,0,0,0
1.381,-6.875,0,0,0,0,0
1.382,-7.5,0,0,0,0,0
1.383,-7.5,0,0,0,0,0
1.384,-7.1875,0,0,0,0,0
1.385,-6.875,0,0,0,0,0
1.386,-7.5,0,0,0,0,0
1.387,-7.5,0,0,0,0,0
1.388,-7.1875,0,0,0,0,0
1.389,-7.5,0,0,0,0,0
1.39,-7.1875,0,0,0,0,0
1.391,-6.875,0,0,0,0,0
1.392,-6.875,0,0,0,0,0
1.393,-7.5,0,0,0,0,0
1.394,-8.125,0,0,0,0,0
1.395,-8.75,0,0,0,0,0
1.396,-9.0625,0,0,0,0,0
1.397,-8.75,0,0,0,0,0
1.398,-8.75,0,0,0,0,0
1.399,-8.75,0,0,0,0,0
1.4,-9.0625,0,0,0,0,0
1.401,-9.375,0,0,0,0,0
1.402,-10,0,0,0,0,0
1.403,-10,0,0,0,0,0
1.404,-10.625,0,0,0,0,0
1.405,-10.625,0,0,0,0,0
1.406,-10.625,0,0,0,0,0
1.407,-10.625,0,0,0,0,0
1.408,-10.625,0,0,0,0,0
1.409,-11.25,0,0,0,0,0
1.41,-10.938,0,0,0,0,0
1.411,-10.625,0,0,0,0,0
1.412,-10.625,0,0,0,0,0
1.413,-11.25,0,0,0,0,0
1.414,-11.25,0,0,0,0,0
1.415,-11.25,0,0,0,0,0
1.416,-11.563,0,0,0,0,0
1.417,-11.875,0,0,0,0,0
1.418,-11.875,0,0,0,0,0
1.419,-12.5,0,0,0,0,0
1.42,-12.5,0,0,0,0,0
1.421,-12.5,0,0,0,0,0
1.422,-12.188,0,0,0,0,0
1.423,-11.875,0,0,0,0,0
1.424,-12.5,0,0,0,0,0
1.425,-12.5,0,0,0,0,0
1.426,-13.125,0,0,0,0,0
1.427,-13.125,0,0,0,1,0
1.428,-12.813,0,0,0,0,0
1.429,-12.5,0,0,0,0,0
1.43,-12.5,0,0,0,0,0
1.431,-12.5,0,0,0,0,0
1.432,-12.813,0,0,0,0,0
1.433,-13.125,0,0,0,0,0
1.434,-12.5,0,0,0,0,0
1.435,-13.125,0,0,0,0,0
1.436,-12.5,0,0,0,0,0
1.437,-12.5,0,0,0,0,0
1.438,-12.5,0,0,0,0,0
1.439,-12.5,0,0,0,0,0
1.44,-12.188,0,0,0,0,0
1.441,-11.875,0,0,0,0,0
1.442,-11.875,0,0,0,0,0
1.443,-11.875,0,0,0,0,0
1.444,-12.188,0,0,0,0,0
1.445,-11.875,0,0,0,0,0
1.446,-11.875,0,0,0,0,0
1.447,-11.25,0,0,0,0,0
1.448,-12.188,0,0,0,0,0
1.449,-11.875,0,0,0,0,0
1.45,-11.563,0,0,0,0,0
1.451,-11.25,0,0,0,0,0
1.452,-10.313,0,0,0,0,0
1.453,-10.625,0,0,0,0,0
1.454,-10.625,0,0,0,0,0
1.455,-11.25,0,0,0,0,0
1.456,-10.313,0,0,0,0,0
1.457,-10,0,0,0,0,0
1.458,-9.375,0,0,0,0,0
1.459,-9.375,0,0,0,0,0
1.46,-9.375,0,0,0,0,0
1.461,-9.375,0,0,0,0,0
1.462,-9.0625,0,0,0,0,0
1.463,-8.75,0,0,0,0,0
1.464,-8.75,0,0,0,0,0
1.465,-8.125,0,0,0,0,0
1.466,-8.125,0,0,0,0,0
1.467,-7.5,0,0,0,0,0
1.468,-7.5,0,0,0,0,0
1.469,-7.5,0,0,0,0,0
1.47,-7.1875,0,0,0,0,0
1.471,-6.875,0,0,0,0,0
1.472,-6.25,0,0,0,0,0
1.473,-6.25,0,0,0,0,0
1.474,-5,0,0,0,0,0
1.475,-5,0,0,0,0,0
1.476,-4.0625,0,0,0,0,0
1.477,-3.75,0,0,0,0,0
1.478,-3.125,0,0,0,0,0
1.479,-3.125,0,0,0,0,0
1.48,-2.8125,0,0,0,0,0
1.481,-3.125,0,0,0,0,0
1.482,-2.5,0,0,0,0,0
1.483,-2.5,0,0,0,0,0
1.484,-2.1875,0,0,0,0,0
1.485,-2.5,0,0,0,0,0
1.486,-2.5,0,0,0,0,0
1.487,-1.875,0,0,0,0,0
1.488,-1.875,0,0,0,0,0
1.489,-1.25,0,0,0,0,0
1.49,-0.9375,0,0,0,0,0
1.491,0,0,0,0,0,0
1.492,0,0,0,0,0,0
1.493,0,0,0,0,0,0
1.494,0.625,0,0,0,0,0
1.495,0.625,0,0,0,0,0
1.496,1.5625,0,0,0,0,0
1.497,1.25,0,0,0,0,0
1.498,1.5625,0,0,0,0,0
1.499,1.25,0,0,0,0,0
1.5,1.875,0,0,0,0,0
1.501,1.875,0,0,0,0,0
1.502,1.875,0,0,0,0,0
1.503,2.5,0,0,0,0,0
1.504,2.5,0,0,0,0,0
1.505,2.5,0,0,0,0,0
1.506,2.8125,0,0,0,0,1
1.507,3.125,0,0,0,0,0
1.508,3.4375,0,0,0,0,0
1.509,3.125,0,0,0,0,0
1.51,3.4375,0,0,0,0,0
1.511,3.75,0,0,0,0,0
1.512,3.75,0,0,0,0,0
1.513,3.75,0,0,0,0,0
1.514,4.375,0,0,0,0,0
1.515,4.375,0,0,0,0,0
1.516,4.0625,0,0,0,0,0
1.517,3.75,0,0,0,0,0
1.518,3.75,0,0,0,0,0
1.519,3.75,0,0,0,0,0
1.52,4.0625,0,0,0,0,0
1.521,4.375,0,0,0,0,0
1.522,3.75,0,0,0,0,0
1.523,4.375,0,0,0,0,0
1.524,4.375,0,0,0,0,0
1.525,4.375,0,0,0,0,0
1.526,4.6875,0,0,0,0,0
1.527,4.375,0,0,0,0,0
1.528,4.6875,0,0,0,0,0
1.529,4.375,0,0,0,0,0
1.53,4.375,0,0,0,0,0
1.531,4.375,0,0,0,0,0
1.532,4.375,0,0,0,0,0
1.533,3.75,0,0,0,0,0
1.534,3.75,0,0,0,0,0
1.535,3.75,0,0,0,0,0
1.536,3.4375,0,0,0,0,0
1.537,3.125,0,0,0,0,0
1.538,3.75,0,0,0,0,0
1.539,3.75,0,0,0,0,0
1.54,4.0625,0,0,0,0,0
1.541,3.75,0,0,0,0,0
1.542,3.4375,0,0,0,0,0
1.543,3.125,0,0,0,0,0
1.544,3.4375,0,0,0,0,0
1.545,3.125,0,0,0,0,0
1.546,3.125,0,0,0,0,0
1.547,3.125,0,0,0,0,0
1.548,3.125,0,0,0,0,0
1.549,3.125,0,0,0,0,0
1.55,3.125,0,0,0,0,0
1.551,3.125,0,0,0,0,0
1.552,3.125,0,0,0,0,0
1.553,3.125,0,0,0,0,0
1.554,3.125,0,0,0,0,0
1.555,3.125,0,0,0,0,0
1.556,3.125,0,0,0,0,0
1.557,3.125,0,0,0,0,0
1.558,3.125,0,0,0,0,0
1.559,3.125,0,0,0,0,0
1.56,2.8125,0,0,0,0,0
1.561,2.5,0,0,0,0,0
1.562,2.8125,0,0,0,0,0
1.563,3.125,0,0,0,0,0
1.564,3.125,0,0,0,0,0
1.565,3.75,0,0,0,0,0
1.566,3.4375,0,0,0,0,0
1.567,3.75,0,0,0,0,0
1.568,3.4375,0,0,0,0,0
1.569,3.125,0,0,0,0,0
1.57,3.125,0,0,0,0,0
1.571,3.125,0,0,0,0,0
1.572,3.4375,0,0,0,0,0
1.573,3.75,0,0,0,0,0
1.574,3.75,0,0,0,0,0
1.575,3.75,0,0,0,0,0
1.576,4.0625,0,0,0,0,0
1.577,3.75,0,0,0,0,0
1.578,4.0625,0,0,0,0,0
1.579,3.75,0,0,0,0,0
1.58,4.0625,0,0,0,0,0
1.581,4.375,0,0,0,0,0
1.582,4.375,0,0,0,0,0
1.583,4.375,0,0,0,0,0
1.584,3.75,0,0,0,0,0
1.585,4.375,0,0,0,0,0
1.586,4.0625,0,0,0,0,0
1.587,3.75,0,0,0,0,0
1.588,4.0625,0,0,0,0,0
1.589,4.375,0,0,0,0,0
1.59,4.375,0,0,0,0,0
1.591,4.375,0,0,0,0,0
1.592,4.375,0,0,0,0,0
1.593,4.375,0,0,0,0,0
1.594,4.0625,0,0,0,0,0
1.595,3.75,0,0,0,0,0
1.596,3.4375,0,0,0,0,0
1.597,3.75,0,0,0,0,0
1.598,3.4375,0,0,0,0,0
1.599,3.75,0,0,0,0,0
1.6,4.0625,0,0,0,0,0
1.601,4.375,0,0,0,0,0
1.602,3.75,0,0,0,0,0
1.603,4.375,0,0,0,0,0
1.604,4.6875,0,0,0,0,0
1.605,5,0,0,0,0,0
1.606,4.375,0,0,0,0,0
1.607,4.375,0,0,0,0,0
1.608,3.75,0,0,0,0,0
1.609,3.125,0,0,0,0,0
1.61,3.125,0,0,0,0,0
1.611,3.125,0,0,0,0,0
1.612,3.125,0,0,0,0,0
1.613,3.125,0,0,0,0,0
1.614,2.8125,0,0,0,0,0
1.615,3.125,0,0,0,0,0
1.616,3.125,0,0,0,0,0
1.617,2.5,0,0,0,0,0
1.618,3.4375,0,0,0,0,0
1.619,3.75,0,0,0,0,0
1.62,3.4375,0,0,0,0,0
1.621,3.75,0,0,0,0,0
1.622,3.75,0,0,0,0,0
1.623,3.75,0,0,0,0,0
1.624,3.75,0,0,0,0,0
1.625,3.75,0,0,0,0,0
1.626,3.75,0,0,0,0,0
1.627,3.75,0,0,0,0,0
1.628,4.0625,0,0,0,0,0
1.629,4.375,0,0,0,0,0
1.63,4.375,0,0,0,0,0
1.631,4.375,0,0,0,0,0
1.632,4.0625,0,0,0,0,0
1.633,3.75,0,0,0,0,0
1.634,3.75,0,0,0,0,0
1.635,3.75,0,0,0,0,0
1.636,3.75,0,0,0,0,0
1.637,3.75,0,0,0,0,0
1.638,3.4375,0,0,0,0,0
1.639,3.125,0,0,0,0,0
1.64,3.125,0,0,0,0,0
1.641,3.125,0,0,0,0,0
1.642,3.125,0,0,0,0,0
1.643,3.125,0,0,0,0,0
1.644,3.125,0,0,0,0,0
1.645,3.125,0,0,0,0,0
1.646,3.75,0,0,0,0,0
1.647,3.75,0,0,0,0,0
1.648,3.75,0,0,0,0,0
1.649,3.75,0,0,0,0,0
1.65,3.4375,0,0,0,0,0
1.651,3.75,0,0,0,0,0
1.652,3.125,0,0,0,0,0
1.653,3.75,0,0,0,0,0
1.654,2.8125,0,0,0,0,0
1.655,2.5,0,0,0,0,0
1.656,2.5,0,0,0,0,0
1.657,3.125,0,0,0,0,0
1.658,2.5,0,0,0,0,0
1.659,2.5,0,0,0,0,0
1.66,2.5,0,0,0,0,0
1.661,2.5,0,0,0,0,0
1.662,2.5,0,0,0,0,0
1.663,2.5,0,0,0,0,0
1.664,2.5,0,0,0,0,0
1.665,2.5,0,0,0,0,0
1.666,2.5,0,0,0,0,0
1.667,2.5,0,0,0,0,0
1.668,2.1875,0,0,0,0,0
1.669,2.5,0,0,0,0,0
1.67,2.1875,0,0,0,0,0
1.671,2.5,0,0,0,0,0
1.672,2.5,0,0,0,0,0
1.673,1.875,0,0,0,0,0
1.674,2.8125,0,0,0,0,0
1.675,2.5,0,0,0,0,0
1.676,3.125,0,0,0,0,0
1.677,2.5,0,0,0,0,0
1.678,2.8125,0,0,0,0,0
1.679,1.875,0,0,0,0,0
1.68,2.8125,0,0,0,0,0
1.681,3.125,0,0,0,0,0
1.682,1.875,0,0,0,0,0
1.683,1.875,0,0,0,0,0
1.684,1.5625,0,0,0,0,0
1.685,1.875,0,0,0,0,0
1.686,2.1875,0,0,0,0,0
1.687,3.125,0,0,0,0,0
1.688,2.1875,0,0,0,0,0
1.689,2.5,0,0,0,0,0
1.69,2.5,0,0,0,0,0
1.691,2.5,0,0,0,0,0
1.692,2.8125,0,0,0,0,0
1.693,2.5,0,0,0,0,0
1.694,2.8125,0,0,0,0,0
1.695,1.875,0,0,0,0,0
1.696,1.5625,0,0,0,0,0
1.697,1.875,0,0,0,0,0
1.698,2.1875,0,0,0,0,0
1.699,2.5,0,0,0,0,0
1.7,2.1875,0,0,0,0,0
1.701,1.875,0,0,0,0,0
1.702,2.1875,0,0,0,0,0
1.703,2.5,0,0,0,0,0
1.704,1.875,0,0,0,0,0
1.705,2.5,0,0,0,0,0
1.706,2.1875,0,0,0,0,0
1.707,1.875,0,0,0,0,0
1.708,1.875,0,0,0,0,0
1.709,1.875,0,0,0,0,0
1.71,2.1875,0,0,0,0,0
1.711,1.875,0,0,0,0,0
1.712,1.875,0,0,0,0,0
1.713,1.25,0,0,0,0,0
1.714,1.5625,0,0,0,0,0
1.715,1.875,0,0,0,0,0
1.716,1.5625,0,0,0,0,0
1.717,1.25,0,0,0,0,0
1.718,1.5625,0,0,0,0,0
1.719,1.875,0,0,0,0,0
1.72,2.5,0,0,0,0,0
1.721,2.5,0,0,0,0,0
1.722,1.875,0,0,0,0,0
1.723,1.875,0,0,0,0,0
1.724,1.875,0,0,0,0,0
1.725,1.875,0,0,0,0,0
1.726,1.875,0,0,0,0,0
1.727,1.875,0,0,0,0,0
1.728,2.5,0,0,0,0,0
1.729,2.5,0,0,0,0,0
1.73,2.5,0,0,0,0,0
1.731,2.5,0,0,0,0,0
1.732,2.8125,0,0,0,0,0
1.733,2.5,0,0,0,0,0
1.734,2.5,0,0,0,0,0
1.735,3.125,0,0,0,0,0
1.736,3.125,0,0,0,0,0
1.737,3.125,0,0,0,0,0
1.738,3.125,0,0,0,0,0
1.739,3.75,0,0,0,0,0
1.74,3.75,0,0,0,0,0
1.741,4.375,0,0,0,0,0
1.742,3.75,0,0,0,0,0
1.743,4.375,0,0,0,0,0
1.744,4.6875,0,0,0,0,0
1.745,5,0,0,0,0,0
1.746,5,0,0,0,0,0
1.747,5,0,0,0,0,0
1.748,5.3125,0,0,0,0,0
1.749,5.625,0,0,0,0,0
1.75,6.25,0,0,0,0,0
1.751,6.25,0,0,0,0,0
1.752,6.25,0,0,0,0,0
1.753,6.25,0,0,0,0,0
1.754,6.25,0,0,0,0,0
1.755,6.25,0,0,0,0,0
1.756,5.9375,0,0,0,0,0
1.757,5.625,0,0,0,0,0
1.758,5.625,0,0,0,0,0
1.759,5.625,0,0,0,0,0
1.76,5.9375,0,0,0,0,0
1.761,6.25,0,0,0,0,0
1.762,6.25,0,0,0,0,0
1.763,6.875,0,0,0,0,0
1.764,5.9375,0,0,0,0,0
1.765,5.625,0,0,0,0,0
1.766,6.25,0,0,0,0,0
1.767,6.25,0,0,0,0,0
1.768,6.25,0,0,0,0,0
1.769,6.25,0,0,0,0,0
1.77,6.5625,0,0,0,0,0
1.771,6.875,0,0,0,0,0
1.772,6.5625,0,0,0,0,0
1.773,6.25,0,0,0,0,0
1.774,6.25,0,0,0,0,0
1.775,6.25,0,0,0,0,0
1.776,5.9375,0,0,0,0,0
1.777,5.625,0,0,0,0,0
1.778,5.9375,0,0,0,0,0
1.779,6.25,0,0,0,0,0
1.78,5.625,0,0,0,0,0
1.781,6.25,0,0,0,0,0
1.782,5.625,0,0,0,0,0
1.783,5.625,0,0,0,0,0
1.784,5.9375,0,0,0,0,0
1.785,5.625,0,0,0,0,0
1.786,6.875,0,0,0,0,0
1.787,6.25,0,0,0,0,0
1.788,5.9375,0,0,0,0,0
1.789,5,0,0,0,0,0
1.79,4.375,0,0,0,0,0
1.791,3.75,0,0,0,0,0
1.792,3.125,0,0,0,0,0
1.793,2.5,0,0,0,0,0
1.794,3.4375,0,0,0,0,0
1.795,3.75,0,0,0,0,0
1.796,3.125,0,0,0,0,0
1.797,3.125,0,0,0,0,0
1.798,3.125,0,0,0,0,0
1.799,3.125,0,0,0,0,0
1.8,2.5,0,0,0,0,0
1.801,2.5,0,0,0,0,0
1.802,2.5,0,0,0,0,0
1.803,2.5,0,0,0,0,0
1.804,2.1875,0,0,0,0,0
1.805,2.5,0,0,0,0,0
1.806,2.8125,0,0,0,0,0
1.807,2.5,0,0,0,0,0
1.808,3.125,0,0,0,0,0
1.809,2.5,0,0,0,0,0
1.81,2.8125,0,0,0,0,0
1.811,2.5,0,0,0,0,0
1.812,2.1875,0,0,0,0,0
1.813,1.875,0,0,0,0,0
1.814,2.1875,0,0,0,0,0
1.815,2.5,0,0,0,0,0
1.816,1.5625,0,0,0,0,0
1.817,1.875,0,0,0,0,0
1.818,1.25,0,0,0,0,0
1.819,1.875,0,0,0,0,0
1.82,1.25,0,0,0,0,0
1.821,1.875,0,0,0,0,0
1.822,1.875,0,0,0,0,0
1.823,1.875,0,0,0,0,0
1.824,2.1875,0,0,0,0,0
1.825,2.5,0,0,0,0,0
1.826,2.5,0,0,0,0,0
1.827,1.875,0,0,0,0,0
1.828,2.1875,0,0,0,0,0
1.829,1.875,0,0,0,0,0
1.83,2.1875,0,0,0,0,0
1.831,1.875,0,0,0,0,0
1.832,2.1875,0,0,0,0,0
1.833,1.875,0,0,0,0,0
1.834,1.875,0,0,0,0,0
1.835,1.875,0,0,0,0,0
1.836,1.5625,0,0,0,0,0
1.837,1.875,0,0,0,0,0
1.838,1.875,0,0,0,0,0
1.839,1.875,0,0,0,0,0
1.84,1.875,0,0,0,0,0
1.841,1.875,0,0,0,0,0
1.842,1.5625,0,0,0,0,0
1.843,1.875,0,0,0,0,0
1.844,2.1875,0,0,0,0,0
1.845,2.5,0,0,0,0,0
1.846,2.1875,0,0,0,0,0
1.847,1.875,0,0,0,0,0
1.848,2.1875,0,0,0,0,0
1.849,1.25,0,0,0,0,0
1.85,1.875,0,0,0,0,0
1.851,1.25,0,0,0,0,0
1.852,1.5625,0,0,0,0,0
1.853,0.625,0,0,0,0,0
1.854,1.25,0,0,0,0,0
1.855,0.625,0,0,0,0,0
1.856,0.625,0,0,0,0,0
1.857,0.625,0,0,0,0,0
1.858,0.3125,0,0,0,0,0
1.859,0.625,0,0,0,0,0
1.86,0.625,0,0,0,0,0
1.861,0.625,0,0,0,0,0
1.862,0.9375,0,0,0,0,0
1.863,1.25,0,0,0,0,0
1.864,0.625,0,0,0,0,0
1.865,0.625,0,0,0,0,0
1.866,0.625,0,0,0,0,0
1.867,0.625,0,0,0,0,0
1.868,0.3125,0,0,0,0,0
1.869,0,0,0,0,0,0
1.87,0.9375,0,0,0,0,0
1.871,0.625,0,0,0,0,0
1.872,1.25,0,0,0,0,0
1.873,0.625,0,0,0,0,0
1.874,0.625,0,0,0,0,0
1.875,0.625,0,0,0,0,0
1.876,0.3125,0,0,0,0,0
1.877,0.625,0,0,0,0,0
1.878,0,0,0,0,0,0
1.879,0.625,0,0,0,0,0
1.88,0,0,0,0,0,0
1.881,0,0,0,0,0,0
1.882,-0.3125,0,0,0,0,0
1.883,0,0,0,0,0,0
1.884,0.3125,0,0,0,0,0
1.885,0,0,0,0,0,0
1.886,0.625,0,0,0,0,0
1.887,0.625,0,0,0,0,0
1.888,0.625,0,0,0,0,0
1.889,0.625,0,0,0,0,0
1.89,0.625,0,0,0,0,0
1.891,0.625,0,0,0,0,0
1.892,1.25,0,0,0,0,0
1.893,1.25,0,0,0,0,0
1.894,1.5625,0,0,0,0,0
1.895,1.25,0,0,0,0,0
1.896,1.25,0,0,0,0,0
1.897,1.25,1,0,0,0,0
1.898,1.25,0,0,0,0,0
1.899,1.25,0,0,0,0,0
1.9,0.9375,0,0,0,0,0
1.901,0.625,0,0,0,0,0
1.902,1.5625,0,0,0,0,0
1.903,1.25,0,0,0,0,0
1.904,1.5625,0,0,0,0,0
1.905,0.625,0,0,0,0,0
1.906,1.25,0,0,0,0,0
1.907,0.625,0,0,0,0,0
1.908,1.25,0,0,0,0,0
1.909,1.25,0,0,0,0,0
1.91,1.5625,0,0,0,0,0
1.911,1.875,0,0,0,0,0
1.912,1.5625,0,0,0,0,0
1.913,1.875,0,0,0,0,0
1.914,2.5,0,0,0,0,0
1.915,2.5,0,0,0,0,0
1.916,2.8125,0,0,0,0,0
1.917,3.125,0,0,0,0,0
1.918,4.375,0,0,0,0,0
1.919,5.625,0,0,0,0,0
1.92,7.1875,0,0,0,0,0
1.921,8.125,0,0,0,0,0
1.922,9.0625,0,0,0,0,0
1.923,9.375,0,0,0,0,0
1.924,10.625,0,0,0,0,0
1.925,11.875,0,0,0,0,0
1.926,13.125,0,0,0,0,0
1.927,14.375,0,0,0,0,0
1.928,15,0,0,0,0,0
1.929,15.625,0,0,0,0,0
1.93,16.875,0,0,0,0,0
1.931,18.125,0,0,0,0,0
1.932,18.75,0,0,0,0,0
1.933,20,0,0,0,0,0
1.934,21.563,0,0,0,0,0
1.935,23.125,0,0,0,0,0
1.936,25,0,0,0,0,0
1.937,27.5,0,0,0,0,0
1.938,29.063,0,0,0,0,0
1.939,30.625,0,0,0,0,0
1.94,31.25,0,0,0,0,0
1.941,31.25,0,0,0,0,0
1.942,31.563,0,0,0,0,0
1.943,30.625,0,0,0,0,0
1.944,29.063,0,0,0,0,0
1.945,27.5,0,1,0,0,0
1.946,26.25,0,0,0,0,0
1.947,26.25,0,0,0,0,0
1.948,24.375,0,0,0,0,0
1.949,23.125,0,0,0,0,0
1.95,21.25,0,0,0,0,0
1.951,20,0,0,0,0,0
1.952,18.75,0,0,0,0,0
1.953,16.25,0,0,0,0,0
1.954,12.813,0,0,0,0,0
1.955,10,0,0,0,0,0
1.956,5.625,0,0,0,0,0
1.957,0.625,0,0,0,0,0
1.958,-5.625,0,0,0,0,0
1.959,-10.625,0,0,0,0,0
1.96,-14.375,0,0,0,0,0
1.961,-18.125,0,0,0,0,0
1.962,-19.688,0,0,0,0,0
1.963,-20.625,0,0,0,0,0
1.964,-21.25,0,0,0,0,0
1.965,-20.625,0,0,0,0,0
1.966,-19.688,0,0,0,0,0
1.967,-17.5,0,0,0,0,0
1.968,-15,0,0,0,0,0
1.969,-11.875,0,0,0,0,0
1.97,-8.125,0,0,0,0,0
1.971,-4.375,0,0,0,0,0
1.972,-3.125,0,0,0,0,0
1.973,-1.25,0,0,0,0,0
1.974,0,0,0,0,0,0
1.975,1.875,0,0,0,0,0
1.976,3.125,0,0,0,0,0
1.977,4.375,0,0,0,0,0
1.978,6.25,0,0,0,0,0
1.979,8.125,0,0,0,0,0
1.98,10.625,0,0,0,0,0
1.981,11.875,0,0,0,0,0
1.982,13.75,0,0,0,0,0
1.983,14.375,0,0,0,0,0
1.984,15.625,0,0,0,0,0
1.985,16.25,0,0,0,0,0
1.986,16.875,0,0,0,0,0
1.987,16.875,0,0,0,0,0
1.988,16.875,0,0,0,0,0
1.989,16.875,0,0,0,0,0
1.99,16.563,0,0,0,0,0
1.991,17.5,0,0,0,0,0
1.992,17.5,0,0,0,0,0
1.993,18.125,0,0,0,0,0
1.994,18.438,0,0,0,0,0
1.995,18.75,0,0,0,0,0
1.996,18.438,0,0,0,0,0
1.997,18.125,0,0,0,0,0
1.998,19.063,0,0,0,0,0
1.999,19.375,0,0,0,0,0
2,20.313,0,0,0,0,0
2.001,20,0,0,0,0,0
2.002,20.625,0,0,0,0,0
2.003,20,0,0,0,0,0
2.004,19.063,0,0,0,0,0
2.005,18.75,0,0,0,0,0
2.006,18.438,0,0,0,0,0
2.007,18.125,0,0,0,0,0
2.008,17.5,0,0,0,0,0
2.009,16.875,0,0,0,0,0
2.01,16.25,0,0,0,0,0
2.011,16.875,0,0,0,0,0
2.012,15.625,0,0,0,0,0
2.013,15,0,0,0,0,0
2.014,14.688,0,0,0,0,0
2.015,14.375,0,0,0,0,0
2.016,14.375,0,0,0,0,0
2.017,13.75,0,0,0,0,0
2.018,13.125,0,0,0,0,0
2.019,12.5,0,0,0,0,0
2.02,12.188,0,0,0,0,0
2.021,11.25,0,0,0,0,0
2.022,10.938,0,0,0,0,0
2.023,10.625,0,0,0,0,0
2.024,10,0,0,0,0,0
2.025,9.375,0,0,0,0,0
2.026,8.75,0,0,0,0,0
2.027,8.125,0,0,0,0,0
2.028,7.5,0,0,0,0,0
2.029,7.5,0,0,0,0,0
2.03,7.1875,0,0,0,0,0
2.031,7.5,0,0,0,0,0
2.032,6.25,0,0,0,0,0
2.033,6.25,0,0,0,0,0
2.034,5.3125,0,0,0,0,0
2.035,5.625,0,0,0,0,0
2.036,4.6875,0,0,0,0,0
2.037,4.375,0,0,0,0,0
2.038,4.375,0,0,0,0,0
2.039,3.75,0,0,0,0,0
2.04,4.0625,0,0,0,0,0
2.041,3.75,0,0,0,0,0
2.042,3.75,0,0,0,0,0
2.043,3.75,0,0,0,0,0
2.044,3.4375,0,0,0,0,0
2.045,2.5,0,0,0,0,0
2.046,2.5,0,0,0,0,0
2.047,2.5,0,0,0,0,0
2.048,1.5625,0,0,0,0,0
2.049,1.25,0,0,0,0,0
2.05,0.9375,0,0,0,0,0
2.051,0.625,0,0,0,0,0
2.052,0,0,0,0,0,0
2.053,0,0,0,0,0,0
2.054,-0.3125,0,0,0,0,0
2.055,-0.625,0,0,0,0,0
2.056,-0.3125,0,0,1,0,0
2.057,-0.625,0,0,0,0,0
2.058,-1.25,0,0,0,0,0
2.059,-2.5,0,0,0,0,0
2.06,-1.5625,0,0,0,0,0
2.061,-1.875,0,0,0,0,0
2.062,-1.875,0,0,0,0,0
2.063,-1.875,0,0,0,0,0
2.064,-1.875,0,0,0,0,0
2.065,-1.875,0,0,0,0,0
2.066,-0.9375,0,0,0,0,0
2.067,-0.625,0,0,0,0,0
2.068,-0.9375,0,0,0,0,0
2.069,-0.625,0,0,0,0,0
2.07,-0.625,0,0,0,0,0
2.071,0,0,0,0,0,0
2.072,-0.9375,0,0,0,0,0
2.073,-0.625,0,0,0,0,0
2.074,-0.3125,0,0,0,0,0
2.075,0,0,0,0,0,0
2.076,0,0,0,0,0,0
2.077,0,0,0,0,0,0
2.078,0.3125,0,0,0,0,0
2.079,0,0,0,0,0,0
2.08,0.3125,0,0,0,0,0
2.081,0,0,0,0,0,0
2.082,0,0,0,0,0,0
2.083,0,0,0,0,0,0
2.084,-0.9375,0,0,0,0,0
2.085,-0.625,0,0,0,0,0
2.086,-0.3125,0,0,0,0,0
2.087,0,0,0,0,0,0
2.088,0.3125,0,0,0,0,0
2.089,0.625,0,0,0,0,0
2.09,0,0,0,0,0,0
2.091,0.625,0,0,0,0,0
2.092,0,0,0,0,0,0
2.093,-0.625,0,0,0,0,0
2.094,-0.3125,0,0,0,0,0
2.095,0,0,0,0,0,0
2.096,-0.3125,0,0,0,0,0
2.097,-0.625,0,0,0,0,0
2.098,-0.3125,0,0,0,0,0
2.099,-0.625,0,0,0,0,0
2.1,0,0,0,0,0,0
2.101,-0.625,0,0,0,0,0
2.102,-0.3125,0,0,0,0,0
2.103,-1.25,0,0,0,0,0
2.104,-1.25,0,0,0,0,0
2.105,-1.25,0,0,0,0,0
2.106,-0.625,0,0,0,0,0
2.107,-0.625,0,0,0,0,0
2.108,-0.9375,0,0,0,0,0
2.109,-0.625,0,0,0,0,0
2.11,-1.5625,0,0,0,0,0
2.111,-1.25,0,0,0,0,0
2.112,-1.5625,0,0,0,0,0
2.113,-1.875,0,0,0,0,0
2.114,-1.5625,0,0,0,0,0
2.115,-1.875,0,0,0,0,0
2.116,-2.1875,0,0,0,0,0
2.117,-2.5,0,0,0,0,0
2.118,-2.1875,0,0,0,0,0
2.119,-3.125,0,0,0,0,0
2.12,-2.1875,0,0,0,0,0
2.121,-2.5,0,0,0,0,0
2.122,-2.1875,0,0,0,0,0
2.123,-1.875,0,0,0,0,0
2.124,-1.875,0,0,0,0,0
2.125,-2.5,0,0,0,0,0
2.126,-1.875,0,0,0,0,0
2.127,-1.875,0,0,0,0,0
2.128,-2.1875,0,0,0,0,0
2.129,-1.875,0,0,0,0,0
2.13,-1.875,0,0,0,0,0
2.131,-1.875,0,0,0,0,0
2.132,-2.1875,0,0,0,0,0
2.133,-2.5,0,0,0,0,0
2.134,-1.875,0,0,0,0,0
2.135,-1.25,0,0,0,0,0
2.136,-1.5625,0,0,0,0,0
2.137,-1.25,0,0,0,0,0
2.138,-1.5625,0,0,0,0,0
2.139,-1.875,0,0,0,0,0
2.14,-1.5625,0,0,0,0,0
2.141,-1.25,0,0,0,0,0
2.142,-0.9375,0,0,0,0,0
2.143,-0.625,0,0,0,0,0
2.144,-1.5625,0,0,0,0,0
2.145,-1.875,0,0,0,0,0
2.146,-2.1875,0,0,0,0,0
2.147,-2.5,0,0,0,0,0
2.148,-3.4375,0,0,0,0,0
2.149,-3.125,0,0,0,0,0
2.15,-3.4375,0,0,0,0,0
2.151,-3.125,0,0,0,0,0
2.152,-3.125,0,0,0,0,0
2.153,-2.5,0,0,0,0,0
2.154,-3.125,0,0,0,0,0
2.155,-3.125,0,0,0,0,0
2.156,-2.8125,0,0,0,0,0
2.157,-3.125,0,0,0,0,0
2.158,-3.4375,0,0,0,0,0
2.159,-3.75,0,0,0,0,0
2.16,-3.125,0,0,0,0,0
2.161,-3.75,0,0,0,0,0
2.162,-3.125,0,0,0,0,0
2.163,-3.125,0,0,0,0,0
2.164,-3.4375,0,0,0,0,0
2.165,-3.75,0,0,0,0,0
2.166,-3.4375,0,0,0,0,0
2.167,-3.125,0,0,0,0,0
2.168,-3.75,0,0,0,0,0
2.169,-3.75,0,0,0,0,0
2.17,-4.375,0,0,0,0,0
2.171,-3.75,0,0,0,0,0
2.172,-4.6875,0,0,0,0,0
2.173,-5,0,0,0,0,0
2.174,-5,0,0,0,0,0
2.175,-5,0,0,0,0,0
2.176,-4.6875,0,0,0,0,0
2.177,-5,0,0,0,0,0
2.178,-5,0,0,0,0,0
2.179,-5,0,0,0,0,0
2.18,-4.6875,0,0,0,0,0
2.181,-5,0,0,0,0,0
2.182,-5,0,0,0,0,0
2.183,-5,0,0,0,0,0
2.184,-5.9375,0,0,0,0,0
2.185,-6.25,0,0,0,0,0
2.186,-6.5625,0,0,0,0,0
2.187,-6.875,0,0,0,0,0
2.188,-7.5,0,0,0,0,0
2.189,-7.5,0,0,0,0,0
2.19,-7.1875,0,0,0,0,0
2.191,-7.5,0,0,0,0,0
2.192,-7.5,0,0,0,0,0
2.193,-7.5,0,0,0,0,0
2.194,-7.5,0,0,0,0,0
2.195,-7.5,0,0,0,0,0
2.196,-7.8125,0,0,0,0,0
2.197,-8.75,0,0,0,0,0
2.198,-8.4375,0,0,0,0,0
2.199,-8.75,0,0,0,0,0
2.2,-8.4375,0,0,0,0,0
2.201,-8.125,0,0,0,0,0
2.202,-8.125,0,0,0,0,0
2.203,-8.125,0,0,0,0,0
2.204,-9.0625,0,0,0,0,0
2.205,-9.375,0,0,0,0,0
2.206,-9.6875,0,0,0,0,0
2.207,-10,0,0,0,0,0
2.208,-10.938,0,0,0,0,0
2.209,-11.25,0,0,0,0,0
2.21,-11.563,0,0,0,0,0
2.211,-11.875,0,0,0,0,0
2.212,-11.563,0,0,0,0,0
2.213,-11.25,0,0,0,0,0
2.214,-11.875,0,0,0,0,0
2.215,-11.875,0,0,0,0,0
2.216,-12.188,0,0,0,0,0
2.217,-12.5,0,0,0,0,0
2.218,-12.5,0,0,0,0,0
2.219,-12.5,0,0,0,0,0
2.22,-12.188,0,0,0,0,0
2.221,-13.125,0,0,0,0,0
2.222,-13.125,0,0,0,0,0
2.223,-13.125,0,0,0,0,0
2.224,-13.125,0,0,0,0,0
2.225,-13.125,0,0,0,1,0
2.226,-12.813,0,0,0,0,0
2.227,-12.5,0,0,0,0,0
2.228,-12.188,0,0,0,0,0
2.229,-11.25,0,0,0,0,0
2.23,-11.875,0,0,0,0,0
2.231,-11.25,0,0,0,0,0
2.232,-11.25,0,0,0,0,0
2.233,-11.25,0,0,0,0,0
2.234,-11.25,0,0,0,0,0
2.235,-11.25,0,0,0,0,0
2.236,-11.25,0,0,0,0,0
2.237,-11.25,0,0,0,0,0
2.238,-11.563,0,0,0,0,0
2.239,-11.875,0,0,0,0,0
2.24,-11.875,0,0,0,0,0
2.241,-12.5,0,0,0,0,0
2.242,-11.25,0,0,0,0,0
2.243,-11.25,0,0,0,0,0
2.244,-10.625,0,0,0,0,0
2.245,-10.625,0,0,0,0,0
2.246,-10.938,0,0,0,0,0
2.247,-10.625,0,0,0,0,0
2.248,-11.25,0,0,0,0,0
2.249,-10.625,0,0,0,0,0
2.25,-10.313,0,0,0,0,0
2.251,-9.375,0,0,0,0,0
2.252,-9.375,0,0,0,0,0
2.253,-8.75,0,0,0,0,0
2.254,-8.4375,0,0,0,0,0
2.255,-8.125,0,0,0,0,0
2.256,-8.125,0,0,0,0,0
2.257,-7.5,0,0,0,0,0
2.258,-7.1875,0,0,0,0,0
2.259,-7.5,0,0,0,0,0
2.26,-6.875,0,0,0,0,0
2.261,-6.875,0,0,0,0,0
2.262,-6.25,0,0,0,0,0
2.263,-6.25,0,0,0,0,0
2.264,-6.25,0,0,0,0,0
2.265,-5.625,0,0,0,0,0
2.266,-5,0,0,0,0,0
2.267,-4.375,0,0,0,0,0
2.268,-5,0,0,0,0,0
2.269,-5,0,0,0,0,0
2.27,-5.625,0,0,0,0,0
2.271,-5,0,0,0,0,0
2.272,-5.3125,0,0,0,0,0
2.273,-5,0,0,0,0,0
2.274,-4.6875,0,0,0,0,0
2.275,-3.75,0,0,0,0,0
2.276,-3.4375,0,0,0,0,0
2.277,-2.5,0,0,0,0,0
2.278,-2.5,0,0,0,0,0
2.279,-1.875,0,0,0,0,0
2.28,-1.875,0,0,0,0,0
2.281,-1.875,0,0,0,0,0
2.282,-0.9375,0,0,0,0,0
2.283,-0.625,0,0,0,0,0
2.284,-0.3125,0,0,0,0,0
2.285,-0.625,0,0,0,0,0
2.286,0,0,0,0,0,0
2.287,0,0,0,0,0,0
2.288,-0.3125,0,0,0,0,0
2.289,0,0,0,0,0,0
2.29,0,0,0,0,0,0
2.291,0.625,0,0,0,0,0
2.292,0.3125,0,0,0,0,0
2.293,1.25,0,0,0,0,0
2.294,1.25,0,0,0,0,0
2.295,1.875,0,0,0,0,0
2.296,2.1875,0,0,0,0,0
2.297,2.5,0,0,0,0,0
2.298,3.125,0,0,0,0,0
2.299,3.125,0,0,0,0,0
2.3,3.125,0,0,0,0,0
2.301,3.125,0,0,0,0,0
2.302,3.4375,0,0,0,0,0
2.303,4.375,0,0,0,0,0
2.304,4.375,0,0,0,0,0
2.305,4.375,0,0,0,0,0
2.306,4.0625,0,0,0,0,0
2.307,3.75,0,0,0,0,0
2.308,3.4375,0,0,0,0,0
2.309,3.75,0,0,0,0,1
2.31,3.75,0,0,0,0,0
2.311,3.75,0,0,0,0,0
2.312,3.75,0,0,0,0,0
2.313,3.75,0,0,0,0,0
2.314,3.75,0,0,0,0,0
2.315,3.75,0,0,0,0,0
2.316,3.75,0,0,0,0,0
2.317,3.125,0,0,0,0,0
2.318,3.75,0,0,0,0,0
2.319,3.75,0,0,0,0,0
2.32,3.75,0,0,0,0,0
2.321,3.75,0,0,0,0,0
2.322,3.4375,0,0,0,0,0
2.323,4.375,0,0,0,0,0
2.324,4.0625,0,0,0,0,0
2.325,3.75,0,0,0,0,0
2.326,4.375,0,0,0,0,0
2.327,5,0,0,0,0,0
2.328,4.6875,0,0,0,0,0
2.329,5,0,0,0,0,0
2.33,4.6875,0,0,0,0,0
2.331,4.375,0,0,0,0,0
2.332,4.375,0,0,0,0,0
2.333,5,0,0,0,0,0
2.334,5,0,0,0,0,0
2.335,5,0,0,0,0,0
2.336,3.75,0,0,0,0,0
2.337,3.125,0,0,0,0,0
2.338,3.4375,0,0,0,0,0
2.339,3.75,0,0,0,0,0
2.34,2.8125,0,0,0,0,0
2.341,2.5,0,0,0,0,0
2.342,2.5,0,0,0,0,0
2.343,2.5,0,0,0,0,0
2.344,2.5,0,0,0,0,0
2.345,2.5,0,0,0,0,0
2.346,2.8125,0,0,0,0,0
2.347,3.125,0,0,0,0,0
2.348,2.8125,0,0,0,0,0
2.349,2.5,0,0,0,0,0
2.35,2.1875,0,0,0,0,0
2.351,1.875,0,0,0,0,0
2.352,2.1875,0,0,0,0,0
2.353,2.5,0,0,0,0,0
2.354,2.8125,0,0,0,0,0
2.355,3.125,0,0,0,0,0
2.356,3.125,0,0,0,0,0
2.357,3.125,0,0,0,0,0
2.358,2.8125,0,0,0,0,0
2.359,2.5,0,0,0,0,0
2.36,3.125,0,0,0,0,0
2.361,2.5,0,0,0,0,0
2.362,2.8125,0,0,0,0,0
2.363,3.125,0,0,0,0,0
2.364,2.8125,0,0,0,0,0
2.365,2.5,0,0,0,0,0
2.366,2.5,0,0,0,0,0
2.367,2.5,0,0,0,0,0
2.368,2.8125,0,0,0,0,0
2.369,3.125,0,0,0,0,0
2.37,3.4375,0,0,0,0,0
2.371,3.75,0,0,0,0,0
2.372,3.125,0,0,0,0,0
2.373,3.75,0,0,0,0,0
2.374,3.125,0,0,0,0,0
2.375,2.5,0,0,0,0,0
2.376,2.8125,0,0,0,0,0
2.377,3.125,0,0,0,0,0
2.378,2.8125,0,0,0,0,0
2.379,1.875,0,0,0,0,0
2.38,2.8125,0,0,0,0,0
2.381,3.125,0,0,0,0,0
2.382,3.4375,0,0,0,0,0
2.383,3.75,0,0,0,0,0
2.384,3.75,0,0,0,0,0
2.385,3.75,0,0,0,0,0
2.386,3.75,0,0,0,0,0
2.387,3.75,0,0,0,0,0
2.388,3.75,0,0,0,0,0
2.389,3.75,0,0,0,0,0
2.39,3.4375,0,0,0,0,0
2.391,3.125,0,0,0,0,0
2.392,4.0625,0,0,0,0,0
2.393,3.75,0,0,0,0,0
2.394,3.75,0,0,0,0,0
2.395,3.75,0,0,0,0,0
2.396,3.4375,0,0,0,0,0
2.397,2.5,0,0,0,0,0
2.398,3.125,0,0,0,0,0
2.399,3.125,0,0,0,0,0
2.4,3.125,0,0,0,0,0
2.401,2.5,0,0,0,0,0
2.402,2.5,0,0,0,0,0
2.403,2.5,0,0,0,0,0
2.404,2.5,0,0,0,0,0
2.405,2.5,0,0,0,0,0
2.406,2.5,0,0,0,0,0
2.407,2.5,0,0,0,0,0
2.408,2.1875,0,0,0,0,0
2.409,1.875,0,0,0,0,0
2.41,2.5,0,0,0,0,0
2.411,2.5,0,0,0,0,0
2.412,1.5625,0,0,0,0,0
2.413,1.875,0,0,0,0,0
2.414,2.1875,0,0,0,0,0
2.415,1.875,0,0,0,0,0
2.416,1.875,0,0,0,0,0
2.417,1.875,0,0,0,0,0
2.418,1.875,0,0,0,0,0
2.419,1.875,0,0,0,0,0
2.42,1.875,0,0,0,0,0
2.421,1.875,0,0,0,0,0
2.422,2.1875,0,0,0,0,0
2.423,2.5,0,0,0,0,0
2.424,2.1875,0,0,0,0,0
2.425,1.875,0,0,0,0,0
2.426,2.1875,0,0,0,0,0
2.427,2.5,0,0,0,0,0
2.428,2.1875,0,0,0,0,0
2.429,1.875,0,0,0,0,0
2.43,1.875,0,0,0,0,0
2.431,1.875,0,0,0,0,0
2.432,1.5625,0,0,0,0,0
2.433,1.25,0,0,0,0,0
2.434,1.25,0,0,0,0,0
2.435,1.25,0,0,0,0,0
2.436,1.25,0,0,0,0,0
2.437,1.25,0,0,0,0,0
2.438,1.5625,0,0,0,0,0
2.439,1.875,0,0,0,0,0
2.44,1.875,0,0,0,0,0
2.441,1.875,0,0,0,0,0
2.442,1.5625,0,0,0,0,0
2.443,1.875,0,0,0,0,0
2.444,1.5625,0,0,0,0,0
2.445,1.25,0,0,0,0,0
2.446,1.875,0,0,0,0,0
2.447,1.25,0,0,0,0,0
2.448,1.875,0,0,0,0,0
2.449,1.25,0,0,0,0,0
2.45,1.25,0,0,0,0,0
2.451,1.25,0,0,0,0,0
2.452,2.5,0,0,0,0,0
2.453,2.5,0,0,0,0,0
2.454,2.5,0,0,0,0,0
2.455,2.5,0,0,0,0,0
2.456,2.5,0,0,0,0,0
2.457,2.5,0,0,0,0,0
2.458,2.1875,0,0,0,0,0
2.459,1.875,0,0,0,0,0
2.46,1.25,0,0,0,0,0
2.461,0.625,0,0,0,0,0
2.462,0.9375,0,0,0,0,0
2.463,1.25,0,0,0,0,0
2.464,1.875,0,0,0,0,0
2.465,1.25,0,0,0,0,0
2.466,1.25,0,0,0,0,0
2.467,1.25,0,0,0,0,0
2.468,0.9375,0,0,0,0,0
2.469,1.875,0,0,0,0,0
2.47,1.5625,0,0,0,0,0
2.471,2.5,0,0,0,0,0
2.472,1.5625,0,0,0,0,0
2.473,1.875,0,0,0,0,0
2.474,0.9375,0,0,0,0,0
2.475,1.25,0,0,0,0,0
2.476,1.5625,0,0,0,0,0
2.477,1.25,0,0,0,0,0
2.478,1.5625,0,0,0,0,0
2.479,1.25,0,0,0,0,0
2.48,1.875,0,0,0,0,0
2.481,1.25,0,0,0,0,0
2.482,1.5625,0,0,0,0,0
2.483,1.25,0,0,0,0,0
2.484,1.25,0,0,0,0,0
2.485,0.625,0,0,0,0,0
2.486,0.9375,0,0,0,0,0
2.487,1.25,0,0,0,0,0
2.488,0.9375,0,0,0,0,0
2.489,1.875,0,0,0,0,0
2.49,0.9375,0,0,0,0,0
2.491,0.625,0,0,0,0,0
2.492,1.25,0,0,0,0,0
2.493,1.25,0,0,0,0,0
2.494,1.25,0,0,0,0,0
2.495,1.25,0,0,0,0,0
2.496,1.5625,0,0,0,0,0
2.497,1.875,0,0,0,0,0
2.498,1.875,0,0,0,0,0
2.499,1.25,0,0,0,0,0
2.5,1.875,0,0,0,0,0
2.501,1.875,0,0,0,0,0
2.502,1.875,0,0,0,0,0
2.503,1.875,0,0,0,0,0
2.504,1.875,0,0,0,0,0
2.505,1.875,0,0,0,0,0
2.506,1.5625,0,0,0,0,0
2.507,1.875,0,0,0,0,0
2.508,0.9375,0,0,0,0,0
2.509,1.25,0,0,0,0,0
2.51,1.5625,0,0,0,0,0
2.511,1.875,0,0,0,0,0
2.512,1.25,0,0,0,0,0
2.513,1.25,0,0,0,0,0
2.514,0.625,0,0,0,0,0
2.515,1.25,0,0,0,0,0
2.516,0.3125,0,0,0,0,0
2.517,0.625,0,0,0,0,0
2.518,0.3125,0,0,0,0,0
2.519,0,0,0,0,0,0
2.52,0.3125,0,0,0,0,0
2.521,0,0,0,0,0,0
2.522,0.3125,0,0,0,0,0
2.523,0.625,0,0,0,0,0
2.524,0.9375,0,0,0,0,0
2.525,1.25,0,0,0,0,0
2.526,2.1875,0,0,0,0,0
2.527,2.5,0,0,0,0,0
2.528,2.5,0,0,0,0,0
2.529,2.5,0,0,0,0,0
2.53,2.1875,0,0,0,0,0
2.531,1.875,0,0,0,0,0
2.532,2.8125,0,0,0,0,0
2.533,3.125,0,0,0,0,0
2.534,3.4375,0,0,0,0,0
2.535,3.75,0,0,0,0,0
2.536,3.75,0,0,0,0,0
2.537,3.75,0,0,0,0,0
2.538,3.75,0,0,0,0,0
2.539,3.75,0,0,0,0,0
2.54,3.75,0,0,0,0,0
2.541,3.75,0,0,0,0,0
2.542,3.75,0,0,0,0,0
2.543,3.75,0,0,0,0,0
2.544,4.0625,0,0,0,0,0
2.545,4.375,0,0,0,0,0
2.546,4.6875,0,0,0,0,0
2.547,5,0,0,0,0,0
2.548,4.6875,0,0,0,0,0
2.549,4.375,0,0,0,0,0
2.55,4.6875,0,0,0,0,0
2.551,5,0,0,0,0,0
2.552,4.6875,0,0,0,0,0
2.553,4.375,0,0,0,0,0
2.554,4.375,0,0,0,0,0
2.555,4.375,0,0,0,0,0
2.556,4.6875,0,0,0,0,0
2.557,5,0,0,0,0,0
2.558,5,0,0,0,0,0
2.559,5,0,0,0,0,0
2.56,5,0,0,0,0,0
2.561,5,0,0,0,0,0
2.562,5,0,0,0,0,0
2.563,5,0,0,0,0,0
2.564,5.3125,0,0,0,0,0
2.565,5.625,0,0,0,0,0
2.566,5.3125,0,0,0,0,0
2.567,5,0,0,0,0,0
2.568,5,0,0,0,0,0
2.569,5,0,0,0,0,0
2.57,4.6875,0,0,0,0,0
2.571,4.375,0,0,0,0,0
2.572,4.375,0,0,0,0,0
2.573,4.375,0,0,0,0,0
2.574,4.0625,0,0,0,0,0
2.575,3.75,0,0,0,0,0
2.576,3.4375,0,0,0,0,0
2.577,3.125,0,0,0,0,0
2.578,3.125,0,0,0,0,0
2.579,3.125,0,0,0,0,0
2.58,3.125,0,0,0,0,0
2.581,3.125,0,0,0,0,0
2.582,3.125,0,0,0,0,0
2.583,3.125,0,0,0,0,0
2.584,2.8125,0,0,0,0,0
2.585,2.5,0,0,0,0,0
2.586,2.5,0,0,0,0,0
2.587,2.5,0,0,0,0,0
2.588,2.1875,0,0,0,0,0
2.589,1.875,0,0,0,0,0
2.59,1.5625,0,0,0,0,0
2.591,1.25,0,0,0,0,0
2.592,0.9375,0,0,0,0,0
2.593,0.625,0,0,0,0,0
2.594,0.625,0,0,0,0,0
2.595,0.625,0,0,0,0,0
2.596,0.3125,0,0,0,0,0
2.597,0,0,0,0,0,0
2.598,0.3125,0,0,0,0,0
2.599,0.625,0,0,0,0,0
2.6,0.625,0,0,0,0,0
2.601,0.625,0,0,0,0,0
2.602,0.625,0,0,0,0,0
2.603,0.625,0,0,0,0,0
2.604,0.625,0,0,0,0,0
2.605,0.625,0,0,0,0,0
2.606,0.3125,0,0,0,0,0
2.607,0,0,0,0,0,0
2.608,0,0,0,0,0,0
2.609,0,0,0,0,0,0
2.61,0,0,0,0,0,0
2.611,0,0,0,0,0,0
2.612,0.3125,0,0,0,0,0
2.613,0.625,0,0,0,0,0
2.614,0.625,0,0,0,0,0
2.615,0.625,0,0,0,0,0
2.616,0.3125,0,0,0,0,0
2.617,0,0,0,0,0,0
2.618,0,0,0,0,0,0
2.619,0,0,0,0,0,0
2.62,0.3125,0,0,0,0,0
2.621,0.625,0,0,0,0,0
2.622,0.3125,0,0,0,0,0
2.623,0,0,0,0,0,0
2.624,0,0,0,0,0,0
2.625,0,0,0,0,0,0
2.626,0,0,0,0,0,0
2.627,0,0,0,0,0,0
2.628,0,0,0,0,0,0
2.629,0,0,0,0,0,0
2.63,0,0,0,0,0,0
2.631,0,0,0,0,0,0
2.632,-0.3125,0,0,0,0,0
2.633,-0.625,0,0,0,0,0
2.634,-0.9375,0,0,0,0,0
2.635,-1.25,0,0,0,0,0
2.636,-0.9375,0,0,0,0,0
2.637,-0.625,0,0,0,0,0
2.638,0,0,0,0,0,0
2.639,0.625,0,0,0,0,0
2.64,0.3125,0,0,0,0,0
2.641,0,0,0,0,0,0
2.642,-0.3125,0,0,0,0,0
2.643,-0.625,0,0,0,0,0
2.644,-0.9375,0,0,0,0,0
2.645,-1.25,0,0,0,0,0
2.646,-1.25,0,0,0,0,0
2.647,-1.25,0,0,0,0,0
2.648,-0.9375,0,0,0,0,0
2.649,-0.625,0,0,0,0,0
2.65,-0.9375,0,0,0,0,0
2.651,-1.25,0,0,0,0,0
2.652,-1.25,0,0,0,0,0
2.653,-1.25,0,0,0,0,0
2.654,-0.9375,0,0,0,0,0
2.655,-0.625,0,0,0,0,0
2.656,-0.3125,0,0,0,0,0
2.657,0,0,0,0,0,0
2.658,0,0,0,0,0,0
2.659,0,0,0,0,0,0
2.66,-0.3125,0,0,0,0,0
2.661,-0.625,0,0,0,0,0
2.662,-0.3125,0,0,0,0,0
2.663,0,0,0,0,0,0
2.664,-0.3125,0,0,0,0,0
2.665,-0.625,0,0,0,0,0
2.666,-0.3125,0,0,0,0,0
2.667,0,0,0,0,0,0
2.668,-0.3125,0,0,0,0,0
2.669,-0.625,0,0,0,0,0
2.67,-0.9375,0,0,0,0,0
2.671,-1.25,0,0,0,0,0
2.672,-1.25,0,0,0,0,0
2.673,-1.25,0,0,0,0,0
2.674,-0.9375,0,0,0,0,0
2.675,-0.625,0,0,0,0,0
2.676,-0.3125,0,0,0,0,0
2.677,0,0,0,0,0,0
2.678,0.3125,0,0,0,0,0
2.679,0.625,0,0,0,0,0
2.68,0.625,0,0,0,0,0
2.681,0.625,0,0,0,0,0
2.682,0.3125,0,0,0,0,0
2.683,0,0,0,0,0,0
2.684,0,0,0,0,0,0
2.685,0,0,0,0,0,0
2.686,0,0,0,0,0,0
2.687,0,0,0,0,0,0
2.688,0,0,0,0,0,0
2.689,0,0,0,0,0,0
2.69,0,1,0,0,0,0
2.691,0,0,0,0,0,0
2.692,-0.3125,0,0,0,0,0
2.693,-0.625,0,0,0,0,0
2.694,-0.3125,0,0,0,0,0
2.695,0,0,0,0,0,0
2.696,-0.3125,0,0,0,0,0
2.697,-0.625,0,0,0,0,0
2.698,0,0,0,0,0,0
2.699,0.625,0,0,0,0,0
2.7,0.625,0,0,0,0,0
2.701,0.625,0,0,0,0,0
2.702,1.5625,0,0,0,0,0
2.703,2.5,0,0,0,0,0
2.704,2.8125,0,0,0,0,0
2.705,3.125,0,0,0,0,0
2.706,3.75,0,0,0,0,0
2.707,4.375,0,0,0,0,0
2.708,4.6875,0,0,0,0,0
2.709,5,0,0,0,0,0
2.71,5.9375,0,0,0,0,0
2.711,6.875,0,0,0,0,0
2.712,7.1875,0,0,0,0,0
2.713,7.5,0,0,0,0,0
2.714,8.4375,0,0,0,0,0
2.715,9.375,0,0,0,0,0
2.716,10.625,0,0,0,0,0
2.717,11.875,0,0,0,0,0
2.718,12.5,0,0,0,0,0
2.719,13.125,0,0,0,0,0
2.72,14.063,0,0,0,0,0
2.721,15,0,0,0,0,0
2.722,16.563,0,0,0,0,0
2.723,18.125,0,0,0,0,0
2.724,19.375,0,0,0,0,0
2.725,20.625,0,0,0,0,0
2.726,22.813,0,0,0,0,0
2.727,25,0,1,0,0,0
2.728,25.938,0,0,0,0,0
2.729,26.875,0,0,0,0,0
2.73,27.188,0,0,0,0,0
2.731,27.5,0,0,0,0,0
2.732,27.5,0,0,0,0,0
2.733,27.5,0,0,0,0,0
2.734,26.25,0,0,0,0,0
2.735,25,0,0,0,0,0
2.736,24.063,0,0,0,0,0
2.737,23.125,0,0,0,0,0
2.738,22.188,0,0,0,0,0
2.739,21.25,0,0,0,0,0
2.74,19.688,0,0,0,0,0
2.741,18.125,0,0,0,0,0
2.742,15.938,0,0,0,0,0
2.743,13.75,0,0,0,0,0
2.744,10,0,0,0,0,0
2.745,6.25,0,0,0,0,0
2.746,2.5,0,0,0,0,0
2.747,-1.25,0,0,0,0,0
2.748,-6.25,0,0,0,0,0
2.749,-11.25,0,0,0,0,0
2.75,-15,0,0,0,0,0
2.751,-18.75,0,0,0,0,0
2.752,-20.313,0,0,0,0,0
2.753,-21.875,0,0,0,0,0
2.754,-21.875,0,0,0,0,0
2.755,-21.875,0,0,0,0,0
2.756,-20.313,0,0,0,0,0
2.757,-18.75,0,0,0,0,0
2.758,-15.625,0,0,0,0,0
2.759,-12.5,0,0,0,0,0
2.76,-9.375,0,0,0,0,0
2.761,-6.25,0,0,0,0,0
2.762,-4.0625,0,0,0,0,0
2.763,-1.875,0,0,0,0,0
2.764,-0.625,0,0,0,0,0
2.765,0.625,0,0,0,0,0
2.766,2.5,0,0,0,0,0
2.767,4.375,0,0,0,0,0
2.768,5.625,0,0,0,0,0
2.769,6.875,0,0,0,0,0
2.77,8.4375,0,0,0,0,0
2.771,10,0,0,0,0,0
2.772,10.938,0,0,0,0,0
2.773,11.875,0,0,0,0,0
2.774,13.125,0,0,0,0,0
2.775,14.375,0,0,0,0,0
2.776,15.313,0,0,0,0,0
2.777,16.25,0,0,0,0,0
2.778,16.875,0,0,0,0,0
2.779,17.5,0,0,0,0,0
2.78,17.188,0,0,0,0,0
2.781,16.875,0,0,0,0,0
2.782,17.188,0,0,0,0,0
2.783,17.5,0,0,0,0,0
2.784,17.5,0,0,0,0,0
2.785,17.5,0,0,0,0,0
2.786,17.5,0,0,0,0,0
2.787,17.5,0,0,0,0,0
2.788,17.813,0,0,0,0,0
2.789,18.125,0,0,0,0,0
2.79,17.813,0,0,0,0,0
2.791,17.5,0,0,0,0,0
2.792,17.5,0,0,0,0,0
2.793,17.5,0,0,0,0,0
2.794,17.5,0,0,0,0,0
2.795,17.5,0,0,0,0,0
2.796,17.5,0,0,0,0,0
2.797,17.5,0,0,0,0,0
2.798,17.5,0,0,0,0,0
2.799,17.5,0,0,0,0,0
2.8,16.563,0,0,0,0,0
2.801,15.625,0,0,0,0,0
2.802,15.313,0,0,0,0,0
2.803,15,0,0,0,0,0
2.804,15.313,0,0,0,0,0
2.805,15.625,0,0,0,0,0
2.806,15,0,0,0,0,0
2.807,14.375,0,0,0,0,0
2.808,13.75,0,0,0,0,0
2.809,13.125,0,0,0,0,0
2.81,12.813,0,0,0,0,0
2.811,12.5,0,0,0,0,0
2.812,11.875,0,0,0,0,0
2.813,11.25,0,0,0,0,0
2.814,10.625,0,0,0,0,0
2.815,10,0,0,0,0,0
2.816,9.375,0,0,0,0,0
2.817,8.75,0,0,0,0,0
2.818,8.4375,0,0,0,0,0
2.819,8.125,0,0,0,0,0
2.82,8.125,0,0,0,0,0
2.821,8.125,0,0,0,0,0
2.822,7.8125,0,0,0,0,0
2.823,7.5,0,0,0,0,0
2.824,6.5625,0,0,0,0,0
2.825,5.625,0,0,0,0,0
2.826,5,0,0,0,0,0
2.827,4.375,0,0,0,0,0
2.828,3.4375,0,0,0,0,0
2.829,2.5,0,0,0,0,0
2.83,2.1875,0,0,0,0,0
2.831,1.875,0,0,0,0,0
2.832,1.5625,0,0,0,0,0
2.833,1.25,0,0,0,0,0
2.834,1.25,0,0,0,0,0
2.835,1.25,0,0,0,0,0
2.836,1.5625,0,0,0,0,0
2.837,1.875,0,0,0,0,0
2.838,1.875,0,0,0,0,0
2.839,1.875,0,0,0,0,0
2.84,1.25,0,0,0,0,0
2.841,0.625,0,0,0,0,0
2.842,0.3125,0,0,0,0,0
2.843,0,0,0,0,0,0
2.844,-0.3125,0,0,0,0,0
2.845,-0.625,0,0,0,0,0
2.846,-0.9375,0,0,0,0,0
2.847,-1.25,0,0,0,0,0
2.848,-1.25,0,0,1,0,0
2.849,-1.25,0,0,0,0,0
2.85,-1.5625,0,0,0,0,0
2.851,-1.875,0,0,0,0,0
2.852,-1.875,0,0,0,0,0
2.853,-1.875,0,0,0,0,0
2.854,-2.1875,0,0,0,0,0
2.855,-2.5,0,0,0,0,0
2.856,-2.5,0,0,0,0,0
2.857,-2.5,0,0,0,0,0
2.858,-2.1875,0,0,0,0,0
2.859,-1.875,0,0,0,0,0
2.86,-1.5625,0,0,0,0,0
2.861,-1.25,0,0,0,0,0
2.862,-1.5625,0,0,0,0,0
2.863,-1.875,0,0,0,0,0
2.864,-1.875,0,0,0,0,0
2.865,-1.875,0,0,0,0,0
2.866,-1.5625,0,0,0,0,0
2.867,-1.25,0,0,0,0,0
2.868,-1.25,0,0,0,0,0
2.869,-1.25,0,0,0,0,0
2.87,-1.5625,0,0,0,0,0
2.871,-1.875,0,0,0,0,0
2.872,-1.875,0,0,0,0,0
2.873,-1.875,0,0,0,0,0
2.874,-1.875,0,0,0,0,0
2.875,-1.875,0,0,0,0,0
2.876,-1.875,0,0,0,0,0
2.877,-1.875,0,0,0,0,0
2.878,-1.25,0,0,0,0,0
2.879,-0.625,0,0,0,0,0
2.88,-0.625,0,0,0,0,0
2.881,-0.625,0,0,0,0,0
2.882,-0.625,0,0,0,0,0
2.883,-0.625,0,0,0,0,0
2.884,-0.9375,0,0,0,0,0
2.885,-1.25,0,0,0,0,0
2.886,-1.25,0,0,0,0,0
2.887,-1.25,0,0,0,0,0
2.888,-0.9375,0,0,0,0,0
2.889,-0.625,0,0,0,0,0
2.89,-0.625,0,0,0,0,0
2.891,-0.625,0,0,0,0,0
2.892,-0.9375,0,0,0,0,0
2.893,-1.25,0,0,0,0,0
2.894,-0.9375,0,0,0,0,0
2.895,-0.625,0,0,0,0,0
2.896,-0.625,0,0,0,0,0
2.897,-0.625,0,0,0,0,0
2.898,-0.3125,0,0,0,0,0
2.899,0,0,0,0,0,0
2.9,-0.3125,0,0,0,0,0
2.901,-0.625,0,0,0,0,0
2.902,-0.625,0,0,0,0,0
2.903,-0.625,0,0,0,0,0
2.904,-0.625,0,0,0,0,0
2.905,-0.625,0,0,0,0,0
2.906,-0.625,0,0,0,0,0
2.907,-0.625,0,0,0,0,0
2.908,-0.9375,0,0,0,0,0
2.909,-1.25,0,0,0,0,0
2.91,-1.25,0,0,0,0,0
2.911,-1.25,0,0,0,0,0
2.912,-1.5625,0,0,0,0,0
2.913,-1.875,0,0,0,0,0
2.914,-2.1875,0,0,0,0,0
2.915,-2.5,0,0,0,0,0
2.916,-2.5,0,0,0,0,0
2.917,-2.5,0,0,0,0,0
2.918,-2.8125,0,0,0,0,0
2.919,-3.125,0,0,0,0,0
2.92,-3.125,0,0,0,0,0
2.921,-3.125,0,0,0,0,0
2.922,-2.8125,0,0,0,0,0
2.923,-2.5,0,0,0,0,0
2.924,-2.5,0,0,0,0,0
2.925,-2.5,0,0,0,0,0
2.926,-2.5,0,0,0,0,0
2.927,-2.5,0,0,0,0,0
2.928,-2.1875,0,0,0,0,0
2.929,-1.875,0,0,0,0,0
2.93,-1.875,0,0,0,0,0
2.931,-1.875,0,0,0,0,0
2.932,-2.1875,0,0,0,0,0
2.933,-2.5,0,0,0,0,0
2.934,-2.8125,0,0,0,0,0
2.935,-3.125,0,0,0,0,0
2.936,-3.4375,0,0,0,0,0
2.937,-3.75,0,0,0,0,0
2.938,-3.4375,0,0,0,0,0
2.939,-3.125,0,0,0,0,0
2.94,-3.4375,0,0,0,0,0
2.941,-3.75,0,0,0,0,0
2.942,-4.0625,0,0,0,0,0
2.943,-4.375,0,0,0,0,0
2.944,-4.6875,0,0,0,0,0
2.945,-5,0,0,0,0,0
2.946,-5,0,0,0,0,0
2.947,-5,0,0,0,0,0
2.948,-5,0,0,0,0,0
2.949,-5,0,0,0,0,0
2.95,-5.3125,0,0,0,0,0
2.951,-5.625,0,0,0,0,0
2.952,-5.9375,0,0,0,0,0
2.953,-6.25,0,0,0,0,0
2.954,-6.25,0,0,0,0,0
2.955,-6.25,0,0,0,0,0
2.956,-6.25,0,0,0,0,0
2.957,-6.25,0,0,0,0,0
2.958,-5.625,0,0,0,0,0
2.959,-5,0,0,0,0,0
2.96,-5,0,0,0,0,0
2.961,-5,0,0,0,0,0
2.962,-5.3125,0,0,0,0,0
2.963,-5.625,0,0,0,0,0
2.964,-5.9375,0,0,0,0,0
2.965,-6.25,0,0,0,0,0
2.966,-6.5625,0,0,0,0,0
2.967,-6.875,0,0,0,0,0
2.968,-6.875,0,0,0,0,0
2.969,-6.875,0,0,0,0,0
2.97,-7.1875,0,0,0,0,0
2.971,-7.5,0,0,0,0,0
2.972,-7.8125,0,0,0,0,0
2.973,-8.125,0,0,0,0,0
2.974,-8.125,0,0,0,0,0
2.975,-8.125,0,0,0,0,0
2.976,-8.125,0,0,0,0,0
2.977,-8.125,0,0,0,0,0
2.978,-8.125,0,0,0,0,0
2.979,-8.125,0,0,0,0,0
2.98,-8.125,0,0,0,0,0
2.981,-8.125,0,0,0,0,0
2.982,-8.125,0,0,0,0,0
2.983,-8.125,0,0,0,0,0
2.984,-8.4375,0,0,0,0,0
2.985,-8.75,0,0,0,0,0
2.986,-9.0625,0,0,0,0,0
2.987,-9.375,0,0,0,0,0
2.988,-9.6875,0,0,0,0,0
2.989,-10,0,0,0,0,0
2.99,-10,0,0,0,0,0
2.991,-10,0,0,0,0,0
2.992,-10,0,0,0,0,0
2.993,-10,0,0,0,0,0
2.994,-10.313,0,0,0,0,0
2.995,-10.625,0,0,0,0,0
2.996,-10.625,0,0,0,0,0
2.997,-10.625,0,0,0,0,0
2.998,-10.625,0,0,0,0,0
2.999,-10.625,0,0,0,0,0
3,-11.25,0,0,0,0,0
3.001,-11.875,0,0,0,0,0
3.002,-12.188,0,0,0,0,0
3.003,-12.5,0,0,0,0,0
3.004,-12.5,0,0,0,0,0
3.005,-12.5,0,0,0,0,0
3.006,-12.5,0,0,0,0,0
3.007,-12.5,0,0,0,0,0
3.008,-12.5,0,0,0,0,0
3.009,-12.5,0,0,0,0,0
3.01,-12.188,0,0,0,0,0
3.011,-11.875,0,0,0,0,0
3.012,-12.188,0,0,0,0,0
3.013,-12.5,0,0,0,0,0
3.014,-12.813,0,0,0,0,0
3.015,-13.125,0,0,0,0,0
3.016,-13.125,0,0,0,0,0
3.017,-13.125,0,0,0,0,0
3.018,-13.125,0,0,0,0,0
3.019,-13.125,0,0,0,0,0
3.02,-13.438,0,0,0,0,0
3.021,-13.75,0,0,0,0,0
3.022,-13.75,0,0,0,0,0
3.023,-13.75,0,0,0,1,0
3.024,-13.438,0,0,0,0,0
3.025,-13.125,0,0,0,0,0
3.026,-13.75,0,0,0,0,0
3.027,-13.75,0,0,0,0,0
3.028,-13.75,0,0,0,0,0
3.029,-13.75,0,0,0,0,0
3.03,-13.75,0,0,0,0,0
3.031,-13.75,0,0,0,0,0
3.032,-13.125,0,0,0,0,0
3.033,-12.5,0,0,0,0,0
3.034,-11.563,0,0,0,0,0
3.035,-11.875,0,0,0,0,0
3.036,-11.563,0,0,0,0,0
3.037,-11.875,0,0,0,0,0
3.038,-10.625,0,0,0,0,0
3.039,-10,0,0,0,0,0
3.04,-10,0,0,0,0,0
3.041,-10.625,0,0,0,0,0
3.042,-10.313,0,0,0,0,0
3.043,-9.375,0,0,0,0,0
3.044,-10,0,0,0,0,0
3.045,-9.375,0,0,0,0,0
3.046,-10,0,0,0,0,0
3.047,-9.375,0,0,0,0,0
3.048,-8.75,0,0,0,0,0
3.049,-8.75,0,0,0,0,0
3.05,-8.125,0,0,0,0,0
3.051,-7.5,0,0,0,0,0
3.052,-7.8125,0,0,0,0,0
3.053,-8.125,0,0,0,0,0
3.054,-7.1875,0,0,0,0,0
3.055,-8.125,0,0,0,0,0
3.056,-6.5625,0,0,0,0,0
3.057,-6.875,0,0,0,0,0
3.058,-6.25,0,0,0,0,0
3.059,-6.25,0,0,0,0,0
3.06,-5.625,0,0,0,0,0
3.061,-5,0,0,0,0,0
3.062,-5,0,0,0,0,0
3.063,-4.375,0,0,0,0,0
3.064,-4.0625,0,0,0,0,0
3.065,-3.125,0,0,0,0,0
3.066,-3.125,0,0,0,0,0
3.067,-3.125,0,0,0,0,0
3.068,-2.1875,0,0,0,0,0
3.069,-1.875,0,0,0,0,0
3.07,-1.5625,0,0,0,0,0
3.071,-0.625,0,0,0,0,0
3.072,-0.9375,0,0,0,0,0
3.073,-0.625,0,0,0,0,0
3.074,-0.9375,0,0,0,0,0
3.075,-0.625,0,0,0,0,0
3.076,-0.9375,0,0,0,0,0
3.077,-0.625,0,0,0,0,0
3.078,-0.625,0,0,0,0,0
3.079,0,0,0,0,0,0
3.08,0,0,0,0,0,0
3.081,0,0,0,0,0,0
3.082,0.625,0,0,0,0,0
3.083,0.625,0,0,0,0,0
3.084,0.625,0,0,0,0,0
3.085,1.25,0,0,0,0,0
3.086,1.25,0,0,0,0,0
3.087,1.25,0,0,0,0,0
3.088,1.875,0,0,0,0,0
3.089,1.875,0,0,0,0,0
3.09,1.5625,0,0,0,0,0
3.091,1.25,0,0,0,0,0
3.092,2.5,0,0,0,0,0
3.093,3.125,0,0,0,0,0
3.094,3.4375,0,0,0,0,0
3.095,3.75,0,0,0,0,0
3.096,3.4375,0,0,0,0,0
3.097,3.75,0,0,0,0,0
3.098,4.0625,0,0,0,0,0
3.099,4.375,0,0,0,0,0
3.1,4.0625,0,0,0,0,0
3.101,3.75,0,0,0,0,0
3.102,3.75,0,0,0,0,1
3.103,3.75,0,0,0,0,0
3.104,3.75,0,0,0,0,0
3.105,3.75,0,0,0,0,0
3.106,4.0625,0,0,0,0,0
3.107,4.375,0,0,0,0,0
3.108,4.375,0,0,0,0,0
3.109,4.375,0,0,0,0,0
3.11,4.375,0,0,0,0,0
3.111,5,0,0,0,0,0
3.112,4.0625,0,0,0,0,0
3.113,3.75,0,0,0,0,0
3.114,3.4375,0,0,0,0,0
3.115,3.125,0,0,0,0,0
3.116,2.5,0,0,0,0,0
3.117,2.5,0,0,0,0,0
3.118,2.8125,0,0,0,0,0
3.119,3.125,0,0,0,0,0
3.12,2.8125,0,0,0,0,0
3.121,3.125,0,0,0,0,0
3.122,3.125,0,0,0,0,0
3.123,3.125,0,0,0,0,0
3.124,3.4375,0,0,0,0,0
3.125,3.75,0,0,0,0,0
3.126,3.75,0,0,0,0,0
3.127,3.125,0,0,0,0,0
3.128,2.8125,0,0,0,0,0
3.129,2.5,0,0,0,0,0
3.13,2.8125,0,0,0,0,0
3.131,3.125,0,0,0,0,0
3.132,3.125,0,0,0,0,0
3.133,3.125,0,0,0,0,0
3.134,3.125,0,0,0,0,0
3.135,2.5,0,0,0,0,0
3.136,2.8125,0,0,0,0,0
3.137,3.125,0,0,0,0,0
3.138,2.8125,0,0,0,0,0
3.139,3.125,0,0,0,0,0
3.14,2.8125,0,0,0,0,0
3.141,2.5,0,0,0,0,0
3.142,2.5,0,0,0,0,0
3.143,2.5,0,0,0,0,0
3.144,3.125,0,0,0,0,0
3.145,3.125,0,0,0,0,0
3.146,3.125,0,0,0,0,0
3.147,2.5,0,0,0,0,0
3.148,2.8125,0,0,0,0,0
3.149,2.5,0,0,0,0,0
3.15,3.4375,0,0,0,0,0
3.151,3.75,0,0,0,0,0
3.152,2.8125,0,0,0,0,0
3.153,3.125,0,0,0,0,0
3.154,3.125,0,0,0,0,0
3.155,3.125,0,0,0,0,0
3.156,2.8125,0,0,0,0,0
3.157,3.125,0,0,0,0,0
3.158,2.8125,0,0,0,0,0
3.159,2.5,0,0,0,0,0
3.16,2.5,0,0,0,0,0
3.161,2.5,0,0,0,0,0
3.162,2.8125,0,0,0,0,0
3.163,2.5,0,0,0,0,0
3.164,2.5,0,0,0,0,0
3.165,1.875,0,0,0,0,0
3.166,3.125,0,0,0,0,0
3.167,3.125,0,0,0,0,0
3.168,2.5,0,0,0,0,0
3.169,2.5,0,0,0,0,0
3.17,2.5,0,0,0,0,0
3.171,2.5,0,0,0,0,0
3.172,3.125,0,0,0,0,0
3.173,3.75,0,0,0,0,0
3.174,2.8125,0,0,0,0,0
3.175,2.5,0,0,0,0,0
3.176,2.5,0,0,0,0,0
3.177,2.5,0,0,0,0,0
3.178,2.5,0,0,0,0,0
3.179,3.125,0,0,0,0,0
3.18,2.5,0,0,0,0,0
3.181,3.125,0,0,0,0,0
3.182,3.4375,0,0,0,0,0
3.183,3.125,0,0,0,0,0
3.184,3.125,0,0,0,0,0
3.185,3.125,0,0,0,0,0
3.186,3.125,0,0,0,0,0
3.187,3.125,0,0,0,0,0
3.188,3.4375,0,0,0,0,0
3.189,3.75,0,0,0,0,0
3.19,3.75,0,0,0,0,0
3.191,3.75,0,0,0,0,0
3.192,3.4375,0,0,0,0,0
3.193,3.75,0,0,0,0,0
3.194,3.4375,0,0,0,0,0
3.195,3.75,0,0,0,0,0
3.196,3.75,0,0,0,0,0
3.197,3.75,0,0,0,0,0
3.198,3.4375,0,0,0,0,0
3.199,3.125,0,0,0,0,0
3.2,2.1875,0,0,0,0,0
3.201,2.5,0,0,0,0,0
3.202,3.125,0,0,0,0,0
3.203,3.75,0,0,0,0,0
3.204,3.75,0,0,0,0,0
3.205,3.75,0,0,0,0,0
3.206,3.75,0,0,0,0,0
3.207,3.75,0,0,0,0,0
3.208,4.375,0,0,0,0,0
3.209,3.75,0,0,0,0,0
3.21,3.75,0,0,0,0,0
3.211,3.75,0,0,0,0,0
3.212,3.75,0,0,0,0,0
3.213,3.75,0,0,0,0,0
3.214,3.4375,0,0,0,0,0
3.215,3.125,0,0,0,0,0
3.216,3.4375,0,0,0,0,0
3.217,3.125,0,0,0,0,0
3.218,3.4375,0,0,0,0,0
3.219,2.5,0,0,0,0,0
3.22,2.8125,0,0,0,0,0
3.221,2.5,0,0,0,0,0
3.222,2.1875,0,0,0,0,0
3.223,1.875,0,0,0,0,0
3.224,2.1875,0,0,0,0,0
3.225,2.5,0,0,0,0,0
3.226,2.1875,0,0,0,0,0
3.227,2.5,0,0,0,0,0
3.228,2.5,0,0,0,0,0
3.229,2.5,0,0,0,0,0
3.23,2.1875,0,0,0,0,0
3.231,1.875,0,0,0,0,0
3.232,2.5,0,0,0,0,0
3.233,1.875,0,0,0,0,0
3.234,1.875,0,0,0,0,0
3.235,1.875,0,0,0,0,0
3.236,1.875,0,0,0,0,0
3.237,1.875,0,0,0,0,0
3.238,2.1875,0,0,0,0,0
3.239,2.5,0,0,0,0,0
3.24,2.5,0,0,0,0,0
3.241,2.5,0,0,0,0,0
3.242,2.1875,0,0,0,0,0
3.243,1.875,0,0,0,0,0
3.244,2.1875,0,0,0,0,0
3.245,2.5,0,0,0,0,0
3.246,2.8125,0,0,0,0,0
3.247,3.125,0,0,0,0,0
3.248,3.75,0,0,0,0,0
3.249,3.125,0,0,0,0,0
3.25,3.75,0,0,0,0,0
3.251,3.125,0,0,0,0,0
3.252,2.8125,0,0,0,0,0
3.253,2.5,0,0,0,0,0
3.254,2.1875,0,0,0,0,0
3.255,2.5,0,0,0,0,0
3.256,2.1875,0,0,0,0,0
3.257,2.5,0,0,0,0,0
3.258,2.1875,0,0,0,0,0
3.259,1.875,0,0,0,0,0
3.26,2.5,0,0,0,0,0
3.261,2.5,0,0,0,0,0
3.262,2.1875,0,0,0,0,0
3.263,2.5,0,0,0,0,0
3.264,2.5,0,0,0,0,0
3.265,2.5,0,0,0,0,0
3.266,2.5,0,0,0,0,0
3.267,2.5,0,0,0,0,0
3.268,1.875,0,0,0,0,0
3.269,1.875,0,0,0,0,0
3.27,1.875,0,0,0,0,0
3.271,1.875,0,0,0,0,0
3.272,1.875,0,0,0,0,0
3.273,1.875,0,0,0,0,0
3.274,1.875,0,0,0,0,0
3.275,1.875,0,0,0,0,0
3.276,1.5625,0,0,0,0,0
3.277,1.875,0,0,0,0,0
3.278,1.875,0,0,0,0,0
3.279,1.875,0,0,0,0,0
3.28,2.1875,0,0,0,0,0
3.281,2.5,0,0,0,0,0
3.282,2.5,0,0,0,0,0
3.283,1.875,0,0,0,0,0
3.284,1.875,0,0,0,0,0
3.285,1.875,0,0,0,0,0
3.286,1.875,0,0,0,0,0
3.287,1.875,0,0,0,0,0
3.288,0.9375,0,0,0,0,0
3.289,1.25,0,0,0,0,0
3.29,1.25,0,0,0,0,0
3.291,1.25,0,0,0,0,0
3.292,1.25,0,0,0,0,0
3.293,1.25,0,0,0,0,0
3.294,1.25,0,0,0,0,0
3.295,1.25,0,0,0,0,0
3.296,1.25,0,0,0,0,0
3.297,1.875,0,0,0,0,0
3.298,1.875,0,0,0,0,0
3.299,1.25,0,0,0,0,0
3.3,1.5625,0,0,0,0,0
3.301,1.875,0,0,0,0,0
3.302,1.5625,0,0,0,0,0
3.303,1.25,0,0,0,0,0
3.304,1.25,0,0,0,0,0
3.305,1.875,0,0,0,0,0
3.306,1.875,0,0,0,0,0
3.307,1.875,0,0,0,0,0
3.308,1.5625,0,0,0,0,0
3.309,1.875,0,0,0,0,0
3.31,2.5,0,0,0,0,0
3.311,3.125,0,0,0,0,0
3.312,3.75,0,0,0,0,0
3.313,3.75,0,0,0,0,0
3.314,3.4375,0,0,0,0,0
3.315,3.125,0,0,0,0,0
3.316,3.75,0,0,0,0,0
3.317,3.75,0,0,0,0,0
3.318,5,0,0,0,0,0
3.319,5,0,0,0,0,0
3.32,5,0,0,0,0,0
3.321,4.375,0,0,0,0,0
3.322,4.375,0,0,0,0,0
3.323,4.375,0,0,0,0,0
3.324,4.375,0,0,0,0,0
3.325,4.375,0,0,0,0,0
3.326,4.375,0,0,0,0,0
3.327,5,0,0,0,0,0
3.328,5.625,0,0,0,0,0
3.329,6.25,0,0,0,0,0
3.33,6.5625,0,0,0,0,0
3.331,6.875,0,0,0,0,0
3.332,7.1875,0,0,0,0,0
3.333,7.5,0,0,0,0,0
3.334,6.875,0,0,0,0,0
3.335,6.25,0,0,0,0,0
3.336,5.9375,0,0,0,0,0
3.337,5.625,0,0,0,0,0
3.338,5.625,0,0,0,0,0
3.339,5.625,0,0,0,0,0
3.34,6.25,0,0,0,0,0
3.341,5.625,0,0,0,0,0
3.342,5.3125,0,0,0,0,0
3.343,5.625,0,0,0,0,0
3.344,6.25,0,0,0,0,0
3.345,6.875,0,0,0,0,0
3.346,6.875,0,0,0,0,0
3.347,6.875,0,0,0,0,0
3.348,6.5625,0,0,0,0,0
3.349,6.25,0,0,0,0,0
3.35,6.5625,0,0,0,0,0
3.351,6.875,0,0,0,0,0
3.352,6.875,0,0,0,0,0
3.353,6.875,0,0,0,0,0
3.354,6.875,0,0,0,0,0
3.355,6.875,0,0,0,0,0
3.356,7.1875,0,0,0,0,0
3.357,6.875,0,0,0,0,0
3.358,7.5,0,0,0,0,0
3.359,6.875,0,0,0,0,0
3.36,6.875,0,0,0,0,0
3.361,6.875,0,0,0,0,0
3.362,6.25,0,0,0,0,0
3.363,6.875,0,0,0,0,0
3.364,5.625,0,0,0,0,0
3.365,5.625,0,0,0,0,0
3.366,4.6875,0,0,0,0,0
3.367,4.375,0,0,0,0,0
3.368,4.6875,0,0,0,0,0
3.369,4.375,0,0,0,0,0
3.37,3.125,0,0,0,0,0
3.371,3.125,0,0,0,0,0
3.372,3.4375,0,0,0,0,0
3.373,3.125,0,0,0,0,0
3.374,2.8125,0,0,0,0,0
3.375,2.5,0,0,0,0,0
3.376,2.8125,0,0,0,0,0
3.377,2.5,0,0,0,0,0
3.378,2.1875,0,0,0,0,0
3.379,1.875,0,0,0,0,0
3.38,2.1875,0,0,0,0,0
3.381,1.875,0,0,0,0,0
3.382,1.5625,0,0,0,0,0
3.383,1.25,0,0,0,0,0
3.384,0.625,0,0,0,0,0
3.385,1.25,0,0,0,0,0
3.386,0.3125,0,0,0,0,0
3.387,0.625,0,0,0,0,0
3.388,0.625,0,0,0,0,0
3.389,0.625,0,0,0,0,0
3.39,0.625,0,0,0,0,0
3.391,0.625,0,0,0,0,0
3.392,0.625,0,0,0,0,0
3.393,0,0,0,0,0,0
3.394,0.625,0,0,0,0,0
3.395,0,0,0,0,0,0
3.396,0.625,0,0,0,0,0
3.397,0,0,0,0,0,0
3.398,0.625,0,0,0,0,0
3.399,0.625,0,0,0,0,0
3.4,0.3125,0,0,0,0,0
3.401,0,0,0,0,0,0
3.402,0.3125,0,0,0,0,0
3.403,0.625,0,0,0,0,0
3.404,0,0,0,0,0,0
3.405,0.625,0,0,0,0,0
3.406,1.25,0,0,0,0,0
3.407,1.875,0,0,0,0,0
3.408,0.9375,0,0,0,0,0
3.409,1.25,0,0,0,0,0
3.41,0.9375,0,0,0,0,0
3.411,0.625,0,0,0,0,0
3.412,1.25,0,0,0,0,0
3.413,1.25,0,0,0,0,0
3.414,1.25,0,0,0,0,0
3.415,1.25,0,0,0,0,0
3.416,1.25,0,0,0,0,0
3.417,1.25,0,0,0,0,0
3.418,1.5625,0,0,0,0,0
3.419,1.25,0,0,0,0,0
3.42,1.25,0,0,0,0,0
3.421,1.25,0,0,0,0,0
3.422,0.9375,0,0,0,0,0
3.423,0.625,0,0,0,0,0
3.424,0.625,0,0,0,0,0
3.425,1.25,0,0,0,0,0
3.426,0.3125,0,0,0,0,0
3.427,0.625,0,0,0,0,0
3.428,-0.3125,0,0,0,0,0
3.429,0,0,0,0,0,0
3.43,-0.9375,0,0,0,0,0
3.431,-0.625,0,0,0,0,0
3.432,-0.625,0,0,0,0,0
3.433,0,0,0,0,0,0
3.434,0,0,0,0,0,0
3.435,0,0,0,0,0,0
3.436,0.625,0,0,0,0,0
3.437,0.625,0,0,0,0,0
3.438,0.625,0,0,0,0,0
3.439,0.625,0,0,0,0,0
3.44,0.9375,0,0,0,0,0
3.441,0.625,0,0,0,0,0
3.442,0.3125,0,0,0,0,0
3.443,0,0,0,0,0,0
3.444,0.3125,0,0,0,0,0
3.445,0.625,0,0,0,0,0
3.446,0.3125,0,0,0,0,0
3.447,0.625,0,0,0,0,0
3.448,-0.3125,0,0,0,0,0
3.449,0,0,0,0,0,0
3.45,-0.3125,0,0,0,0,0
3.451,0,0,0,0,0,0
3.452,0,0,0,0,0,0
3.453,0,0,0,0,0,0
3.454,0.625,0,0,0,0,0
3.455,0,0,0,0,0,0
3.456,0.3125,0,0,0,0,0
3.457,-0.625,0,0,0,0,0
3.458,-0.3125,0,0,0,0,0
3.459,0,0,0,0,0,0
3.46,0.3125,0,0,0,0,0
3.461,0,0,0,0,0,0
3.462,-0.9375,0,0,0,0,0
3.463,-0.625,0,0,0,0,0
3.464,-0.9375,0,0,0,0,0
3.465,-1.25,0,0,0,0,0
3.466,-0.625,0,0,0,0,0
3.467,0,0,0,0,0,0
3.468,-0.3125,0,0,0,0,0
3.469,0,0,0,0,0,0
3.47,0.3125,0,0,0,0,0
3.471,0.625,0,0,0,0,0
3.472,0,0,0,0,0,0
3.473,0,0,0,0,0,0
3.474,0,0,0,0,0,0
3.475,0,0,0,0,0,0
3.476,0,0,0,0,0,0
3.477,0,1,0,0,0,0
3.478,0,0,0,0,0,0
3.479,0.625,0,0,0,0,0
3.48,0,0,0,0,0,0
3.481,0.625,0,0,0,0,0
3.482,-0.3125,0,0,0,0,0
3.483,0,0,0,0,0,0
3.484,-0.3125,0,0,0,0,0
3.485,0.625,0,0,0,0,0
3.486,0.625,0,0,0,0,0
3.487,1.25,0,0,0,0,0
3.488,1.875,0,0,0,0,0
3.489,1.875,0,0,0,0,0
3.49,2.1875,0,0,0,0,0
3.491,2.5,0,0,0,0,0
3.492,2.5,0,0,0,0,0
3.493,3.125,0,0,0,0,0
3.494,3.75,0,0,0,0,0
3.495,5,0,0,0,0,0
3.496,6.25,0,0,0,0,0
3.497,7.5,0,0,0,0,0
3.498,8.4375,0,0,0,0,0
3.499,9.375,0,0,0,0,0
3.5,8.75,0,0,0,0,0
3.501,9.375,0,0,0,0,0
3.502,10.938,0,0,0,0,0
3.503,12.5,0,0,0,0,0
3.504,14.063,0,0,0,0,0
3.505,15,0,0,0,0,0
3.506,15.625,0,0,0,0,0
3.507,16.875,0,0,0,0,0
3.508,18.438,0,0,0,0,0
3.509,19.375,0,0,0,0,0
3.51,20.313,0,0,0,0,0
3.511,21.875,0,0,0,0,0
3.512,23.125,0,0,0,0,0
3.513,24.375,0,0,0,0,0
3.514,26.875,0,0,0,0,0
3.515,28.125,0,0,0,0,0
3.516,29.688,0,0,0,0,0
3.517,30,0,0,0,0,0
3.518,30,0,0,0,0,0
3.519,30.625,0,0,0,0,0
3.52,29.688,0,1,0,0,0
3.521,28.75,0,0,0,0,0
3.522,27.813,0,0,0,0,0
3.523,26.875,0,0,0,0,0
3.524,27.188,0,0,0,0,0
3.525,25.625,0,0,0,0,0
3.526,24.375,0,0,0,0,0
3.527,22.5,0,0,0,0,0
3.528,21.25,0,0,0,0,0
3.529,19.375,0,0,0,0,0
3.53,15.938,0,0,0,0,0
3.531,11.875,0,0,0,0,0
3.532,9.0625,0,0,0,0,0
3.533,5,0,0,0,0,0
3.534,0,0,0,0,0,0
3.535,-5.625,0,0,0,0,0
3.536,-10.313,0,0,0,0,0
3.537,-14.375,0,0,0,0,0
3.538,-18.438,0,0,0,0,0
3.539,-20,0,0,0,0,0
3.54,-21.25,0,0,0,0,0
3.541,-21.875,0,0,0,0,0
3.542,-21.25,0,0,0,0,0
3.543,-20.625,0,0,0,0,0
3.544,-17.813,0,0,0,0,0
3.545,-15,0,0,0,0,0
3.546,-11.875,0,0,0,0,0
3.547,-8.75,0,0,0,0,0
3.548,-5.9375,0,0,0,0,0
3.549,-5,0,0,0,0,0
3.55,-3.125,0,0,0,0,0
3.551,-1.875,0,0,0,0,0
3.552,-0.3125,0,0,0,0,0
3.553,0.625,0,0,0,0,0
3.554,2.1875,0,0,0,0,0
3.555,4.375,0,0,0,0,0
3.556,5.9375,0,0,0,0,0
3.557,8.125,0,0,0,0,0
3.558,9.6875,0,0,0,0,0
3.559,11.875,0,0,0,0,0
3.56,12.5,0,0,0,0,0
3.561,13.75,0,0,0,0,0
3.562,14.688,0,0,0,0,0
3.563,15.625,0,0,0,0,0
3.564,15.625,0,0,0,0,0
3.565,15.625,0,0,0,0,0
3.566,15.938,0,0,0,0,0
3.567,15.625,0,0,0,0,0
3.568,15.625,0,0,0,0,0
3.569,15,0,0,0,0,0
3.57,15.625,0,0,0,0,0
3.571,15.625,0,0,0,0,0
3.572,15.938,0,0,0,0,0
3.573,16.25,0,0,0,0,0
3.574,15.938,0,0,0,0,0
3.575,16.25,0,0,0,0,0
3.576,16.563,0,0,0,0,0
3.577,17.5,0,0,0,0,0
3.578,16.875,0,0,0,0,0
3.579,17.5,0,0,0,0,0
3.58,17.188,0,0,0,0,0
3.581,16.875,0,0,0,0,0
3.582,17.188,0,0,0,0,0
3.583,17.5,0,0,0,0,0
3.584,17.5,0,0,0,0,0
3.585,16.875,0,0,0,0,0
3.586,16.563,0,0,0,0,0
3.587,15.625,0,0,0,0,0
3.588,15.313,0,0,0,0,0
3.589,14.375,0,0,0,0,0
3.59,14.375,0,0,0,0,0
3.591,14.375,0,0,0,0,0
3.592,14.375,0,0,0,0,0
3.593,14.375,0,0,0,0,0
3.594,13.75,0,0,0,0,0
3.595,13.125,0,0,0,0,0
3.596,12.188,0,0,0,0,0
3.597,11.875,0,0,0,0,0
3.598,11.563,0,0,0,0,0
3.599,11.25,0,0,0,0,0
3.6,10.938,0,0,0,0,0
3.601,10.625,0,0,0,0,0
3.602,10.313,0,0,0,0,0
3.603,10,0,0,0,0,0
3.604,9.375,0,0,0,0,0
3.605,8.75,0,0,0,0,0
3.606,8.75,0,0,0,0,0
3.607,8.125,0,0,0,0,0
3.608,8.125,0,0,0,0,0
3.609,6.875,0,0,0,0,0
3.61,6.5625,0,0,0,0,0
3.611,5,0,0,0,0,0
3.612,4.375,0,0,0,0,0
3.613,3.125,0,0,0,0,0
3.614,2.8125,0,0,0,0,0
3.615,2.5,0,0,0,0,0
3.616,1.5625,0,0,0,0,0
3.617,1.25,0,0,0,0,0
3.618,0.9375,0,0,0,0,0
3.619,1.25,0,0,0,0,0
3.62,1.5625,0,0,0,0,0
3.621,1.875,0,0,0,0,0
3.622,1.25,0,0,0,0,0
3.623,1.25,0,0,0,0,0
3.624,1.5625,0,0,0,0,0
3.625,1.25,0,0,0,0,0
3.626,1.875,0,0,0,0,0
3.627,1.875,0,0,0,0,0
3.628,0.625,0,0,0,0,0
3.629,-0.625,0,0,0,0,0
3.63,-0.625,0,0,0,0,0
3.631,-0.625,0,0,0,0,0
3.632,-0.9375,0,0,0,0,0
3.633,-1.25,0,0,0,0,0
3.634,-1.5625,0,0,0,0,0
3.635,-1.25,0,0,0,0,0
3.636,-2.1875,0,0,1,0,0
3.637,-1.875,0,0,0,0,0
3.638,-2.1875,0,0,0,0,0
3.639,-1.875,0,0,0,0,0
3.64,-2.1875,0,0,0,0,0
3.641,-2.5,0,0,0,0,0
3.642,-3.125,0,0,0,0,0
3.643,-3.125,0,0,0,0,0
3.644,-2.8125,0,0,0,0,0
3.645,-2.5,0,0,0,0,0
3.646,-1.875,0,0,0,0,0
3.647,-1.875,0,0,0,0,0
3.648,-1.25,0,0,0,0,0
3.649,-1.875,0,0,0,0,0
3.65,-0.9375,0,0,0,0,0
3.651,-0.625,0,0,0,0,0
3.652,-0.625,0,0,0,0,0
3.653,-0.625,0,0,0,0,0
3.654,-0.625,0,0,0,0,0
3.655,-0.625,0,0,0,0,0
3.656,-1.5625,0,0,0,0,0
3.657,-1.25,0,0,0,0,0
3.658,-0.9375,0,0,0,0,0
3.659,-0.625,0,0,0,0,0
3.66,-0.625,0,0,0,0,0
3.661,-1.25,0,0,0,0,0
3.662,-0.9375,0,0,0,0,0
3.663,-1.25,0,0,0,0,0
3.664,-1.25,0,0,0,0,0
3.665,-1.25,0,0,0,0,0
3.666,-0.9375,0,0,0,0,0
3.667,-1.25,0,0,0,0,0
3.668,-0.625,0,0,0,0,0
3.669,-0.625,0,0,0,0,0
3.67,-0.3125,0,0,0,0,0
3.671,0,0,0,0,0,0
3.672,0,0,0,0,0,0
3.673,0,0,0,0,0,0
3.674,0,0,0,0,0,0
3.675,0,0,0,0,0,0
3.676,-0.625,0,0,0,0,0
3.677,0,0,0,0,0,0
3.678,-0.9375,0,0,0,0,0
3.679,-0.625,0,0,0,0,0
3.68,-1.25,0,0,0,0,0
3.681,-1.25,0,0,0,0,0
3.682,-0.9375,0,0,0,0,0
3.683,-0.625,0,0,0,0,0
3.684,-1.5625,0,0,0,0,0
3.685,-1.875,0,0,0,0,0
3.686,-1.25,0,0,0,0,0
3.687,-1.875,0,0,0,0,0
3.688,-1.25,0,0,0,0,0
3.689,-1.25,0,0,0,0,0
3.69,-1.5625,0,0,0,0,0
3.691,-1.875,0,0,0,0,0
3.692,-2.5,0,0,0,0,0
3.693,-2.5,0,0,0,0,0
3.694,-2.1875,0,0,0,0,0
3.695,-1.25,0,0,0,0,0
3.696,-2.1875,0,0,0,0,0
3.697,-1.875,0,0,0,0,0
3.698,-2.5,0,0,0,0,0
3.699,-2.5,0,0,0,0,0
3.7,-2.1875,0,0,0,0,0
3.701,-1.875,0,0,0,0,0
3.702,-2.5,0,0,0,0,0
3.703,-1.875,0,0,0,0,0
3.704,-1.875,0,0,0,0,0
3.705,-2.5,0,0,0,0,0
3.706,-2.5,0,0,0,0,0
3.707,-2.5,0,0,0,0,0
3.708,-2.5,0,0,0,0,0
3.709,-2.5,0,0,0,0,0
3.71,-2.5,0,0,0,0,0
3.711,-2.5,0,0,0,0,0
3.712,-2.5,0,0,0,0,0
3.713,-3.125,0,0,0,0,0
3.714,-3.4375,0,0,0,0,0
3.715,-3.75,0,0,0,0,0
3.716,-3.75,0,0,0,0,0
3.717,-3.75,0,0,0,0,0
3.718,-3.75,0,0,0,0,0
3.719,-3.75,0,0,0,0,0
3.72,-3.4375,0,0,0,0,0
3.721,-3.75,0,0,0,0,0
3.722,-3.75,0,0,0,0,0
3.723,-3.75,0,0,0,0,0
3.724,-3.4375,0,0,0,0,0
3.725,-3.75,0,0,0,0,0
3.726,-2.8125,0,0,0,0,0
3.727,-3.125,0,0,0,0,0
3.728,-3.75,0,0,0,0,0
3.729,-4.375,0,0,0,0,0
3.73,-3.4375,0,0,0,0,0
3.731,-3.75,0,0,0,0,0
3.732,-3.75,0,0,0,0,0
3.733,-3.75,0,0,0,0,0
3.734,-4.375,0,0,0,0,0
3.735,-4.375,0,0,0,0,0
3.736,-4.6875,0,0,0,0,0
3.737,-4.375,0,0,0,0,0
3.738,-5.3125,0,0,0,0,0
3.739,-5.625,0,0,0,0,0
3.74,-6.25,0,0,0,0,0
3.741,-6.25,0,0,0,0,0
3.742,-6.5625,0,0,0,0,0
3.743,-6.875,0,0,0,0,0
3.744,-6.5625,0,0,0,0,0
3.745,-6.875,0,0,0,0,0
3.746,-6.5625,0,0,0,0,0
3.747,-6.875,0,0,0,0,0
3.748,-6.25,0,0,0,0,0
3.749,-6.875,0,0,0,0,0
3.75,-6.5625,0,0,0,0,0
3.751,-6.25,0,0,0,0,0
3.752,-6.25,0,0,0,0,0
3.753,-6.25,0,0,0,0,0
3.754,-6.875,0,0,0,0,0
3.755,-6.875,0,0,0,0,0
3.756,-7.1875,0,0,0,0,0
3.757,-7.5,0,0,0,0,0
3.758,-8.125,0,0,0,0,0
3.759,-8.125,0,0,0,0,0
3.76,-8.75,0,0,0,0,0
3.761,-10,0,0,0,0,0
3.762,-9.6875,0,0,0,0,0
3.763,-9.375,0,0,0,0,0
3.764,-8.75,0,0,0,0,0
3.765,-8.75,0,0,0,0,0
3.766,-8.75,0,0,0,0,0
3.767,-8.75,0,0,0,0,0
3.768,-9.6875,0,0,0,0,0
3.769,-10,0,0,0,0,0
3.77,-10,0,0,0,0,0
3.771,-10,0,0,0,0,0
3.772,-10,0,0,0,0,0
3.773,-10,0,0,0,0,0
3.774,-10.313,0,0,0,0,0
3.775,-10,0,0,0,0,0
3.776,-10.313,0,0,0,0,0
3.777,-10,0,0,0,0,0
3.778,-10.313,0,0,0,0,0
3.779,-10.625,0,0,0,0,0
3.78,-10.938,0,0,0,0,0
3.781,-11.875,0,0,0,0,0
3.782,-11.563,0,0,0,0,0
3.783,-11.25,0,0,0,0,0
3.784,-11.563,0,0,0,0,0
3.785,-12.5,0,0,0,0,0
3.786,-12.5,0,0,0,0,0
3.787,-12.5,0,0,0,0,0
3.788,-12.813,0,0,0,0,0
3.789,-13.125,0,0,0,0,0
3.79,-13.125,0,0,0,0,0
3.791,-13.75,0,0,0,0,0
3.792,-13.438,0,0,0,0,0
3.793,-13.125,0,0,0,0,0
3.794,-13.438,0,0,0,0,0
3.795,-13.75,0,0,0,0,0
3.796,-13.75,0,0,0,0,0
3.797,-13.125,0,0,0,0,0
3.798,-13.438,0,0,0,0,0
3.799,-13.125,0,0,0,0,0
3.8,-13.438,0,0,0,1,0
3.801,-13.75,0,0,0,0,0
3.802,-14.063,0,0,0,0,0
3.803,-14.375,0,0,0,0,0
3.804,-14.375,0,0,0,0,0
3.805,-14.375,0,0,0,0,0
3.806,-13.75,0,0,0,0,0
3.807,-14.375,0,0,0,0,0
3.808,-13.75,0,0,0,0,0
3.809,-13.75,0,0,0,0,0
3.81,-13.75,0,0,0,0,0
3.811,-13.75,0,0,0,0,0
3.812,-13.438,0,0,0,0,0
3.813,-13.125,0,0,0,0,0
3.814,-13.125,0,0,0,0,0
3.815,-13.125,0,0,0,0,0
3.816,-13.438,0,0,0,0,0
3.817,-13.125,0,0,0,0,0
3.818,-13.125,0,0,0,0,0
3.819,-12.5,0,0,0,0,0
3.82,-13.438,0,0,0,0,0
3.821,-13.125,0,0,0,0,0
3.822,-12.813,0,0,0,0,0
3.823,-12.5,0,0,0,0,0
3.824,-12.188,0,0,0,0,0
3.825,-13.125,0,0,0,0,0
3.826,-12.5,0,0,0,0,0
3.827,-12.5,0,0,0,0,0
3.828,-11.875,0,0,0,0,0
3.829,-11.875,0,0,0,0,0
3.83,-11.25,0,0,0,0,0
3.831,-11.25,0,0,0,0,0
3.832,-11.25,0,0,0,0,0
3.833,-11.25,0,0,0,0,0
3.834,-10.625,0,0,0,0,0
3.835,-10,0,0,0,0,0
3.836,-10,0,0,0,0,0
3.837,-9.375,0,0,0,0,0
3.838,-9.375,0,0,0,0,0
3.839,-8.75,0,0,0,0,0
3.84,-8.4375,0,0,0,0,0
3.841,-8.125,0,0,0,0,0
3.842,-7.8125,0,0,0,0,0
3.843,-7.5,0,0,0,0,0
3.844,-6.875,0,0,0,0,0
3.845,-6.875,0,0,0,0,0
3.846,-5.9375,0,0,0,0,0
3.847,-6.25,0,0,0,0,0
3.848,-5.9375,0,0,0,0,0
3.849,-6.25,0,0,0,0,0
3.85,-5.3125,0,0,0,0,0
3.851,-5,0,0,0,0,0
3.852,-4.375,0,0,0,0,0
3.853,-4.375,0,0,0,0,0
3.854,-3.75,0,0,0,0,0
3.855,-3.75,0,0,0,0,0
3.856,-3.125,0,0,0,0,0
3.857,-3.125,0,0,0,0,0
3.858,-3.125,0,0,0,0,0
3.859,-2.5,0,0,0,0,0
3.86,-2.5,0,0,0,0,0
3.861,-1.875,0,0,0,0,0
3.862,-2.1875,0,0,0,0,0
3.863,-1.875,0,0,0,0,0
3.864,-1.5625,0,0,0,0,0
3.865,-1.25,0,0,0,0,0
3.866,-0.625,0,0,0,0,0
3.867,-0.625,0,0,0,0,0
3.868,0,0,0,0,0,0
3.869,-0.625,0,0,0,0,0
3.87,0,0,0,0,0,0
3.871,0,0,0,0,0,0
3.872,0.3125,0,0,0,0,0
3.873,0,0,0,0,0,0
3.874,0,0,0,0,0,0
3.875,0.625,0,0,0,0,0
3.876,0.625,0,0,0,0,0
3.877,0.625,0,0,0,0,0
3.878,0.9375,0,0,0,0,0
3.879,1.25,0,0,0,0,0
3.88,1.5625,0,0,0,0,0
3.881,1.25,0,0,0,0,0
3.882,1.25,0,0,0,0,0
3.883,1.25,0,0,0,0,0
3.884,1.5625,0,0,0,0,0
3.885,1.875,0,0,0,0,0
3.886,2.8125,0,0,0,0,0
3.887,3.125,0,0,0,0,0
3.888,2.8125,0,0,0,0,0
3.889,2.5,0,0,0,0,0
3.89,2.8125,0,0,0,0,1
3.891,3.125,0,0,0,0,0
3.892,3.4375,0,0,0,0,0
3.893,3.75,0,0,0,0,0
3.894,2.8125,0,0,0,0,0
3.895,3.125,0,0,0,0,0
3.896,2.8125,0,0,0,0,0
3.897,2.5,0,0,0,0,0
3.898,2.8125,0,0,0,0,0
3.899,2.5,0,0,0,0,0
3.9,2.8125,0,0,0,0,0
3.901,2.5,0,0,0,0,0
3.902,2.8125,0,0,0,0,0
3.903,3.125,0,0,0,0,0
3.904,3.4375,0,0,0,0,0
3.905,3.125,0,0,0,0,0
3.906,3.125,0,0,0,0,0
3.907,3.125,0,0,0,0,0
3.908,2.8125,0,0,0,0,0
3.909,2.5,0,0,0,0,0
3.91,3.125,0,0,0,0,0
3.911,3.125,0,0,0,0,0
3.912,3.4375,0,0,0,0,0
3.913,3.125,0,0,0,0,0
3.914,3.125,0,0,0,0,0
3.915,3.125,0,0,0,0,0
3.916,3.4375,0,0,0,0,0
3.917,3.125,0,0,0,0,0
3.918,3.125,0,0,0,0,0
3.919,3.125,0,0,0,0,0
3.92,3.125,0,0,0,0,0
3.921,3.125,0,0,0,0,0
3.922,3.125,0,0,0,0,0
3.923,3.125,0,0,0,0,0
3.924,3.125,0,0,0,0,0
3.925,3.125,0,0,0,0,0
3.926,3.125,0,0,0,0,0
3.927,3.125,0,0,0,0,0
3.928,3.125,0,0,0,0,0
3.929,3.125,0,0,0,0,0
3.93,3.125,0,0,0,0,0
3.931,3.125,0,0,0,0,0
3.932,3.4375,0,0,0,0,0
3.933,3.75,0,0,0,0,0
3.934,3.75,0,0,0,0,0
3.935,3.75,0,0,0,0,0
3.936,3.4375,0,0,0,0,0
3.937,3.75,0,0,0,0,0
3.938,2.8125,0,0,0,0,0
3.939,2.5,0,0,0,0,0
3.94,2.8125,0,0,0,0,0
3.941,3.125,0,0,0,0,0
3.942,3.125,0,0,0,0,0
3.943,3.125,0,0,0,0,0
3.944,3.125,0,0,0,0,0
3.945,3.125,0,0,0,0,0
3.946,3.4375,0,0,0,0,0
3.947,3.75,0,0,0,0,0
3.948,3.75,0,0,0,0,0
3.949,3.125,0,0,0,0,0
3.95,3.4375,0,0,0,0,0
3.951,3.125,0,0,0,0,0
3.952,3.125,0,0,0,0,0
3.953,3.125,0,0,0,0,0
3.954,3.4375,0,0,0,0,0
3.955,3.75,0,0,0,0,0
3.956,3.125,0,0,0,0,0
3.957,3.75,0,0,0,0,0
3.958,3.75,0,0,0,0,0
3.959,3.75,0,0,0,0,0
3.96,3.4375,0,0,0,0,0
3.961,3.125,0,0,0,0,0
3.962,2.8125,0,0,0,0,0
3.963,2.5,0,0,0,0,0
3.964,2.5,0,0,0,0,0
3.965,2.5,0,0,0,0,0
3.966,2.5,0,0,0,0,0
3.967,2.5,0,0,0,0,0
3.968,2.1875,0,0,0,0,0
3.969,2.5,0,0,0,0,0
3.97,2.1875,0,0,0,0,0
3.971,2.5,0,0,0,0,0
3.972,2.8125,0,0,0,0,0
3.973,3.125,0,0,0,0,0
3.974,2.1875,0,0,0,0,0
3.975,2.5,0,0,0,0,0
3.976,2.5,0,0,0,0,0
3.977,2.5,0,0,0,0,0
3.978,2.1875,0,0,0,0,0
3.979,2.5,0,0,0,0,0
3.98,2.1875,0,0,0,0,0
3.981,1.875,0,0,0,0,0
3.982,1.875,0,0,0,0,0
3.983,1.875,0,0,0,0,0
3.984,1.875,0,0,0,0,0
3.985,1.875,0,0,0,0,0
3.986,1.875,0,0,0,0,0
3.987,2.5,0,0,0,0,0
3.988,2.8125,0,0,0,0,0
3.989,2.5,0,0,0,0,0
3.99,3.125,0,0,0,0,0
3.991,3.125,0,0,0,0,0
3.992,2.5,0,0,0,0,0
3.993,2.5,0,0,0,0,0
3.994,2.8125,0,0,0,0,0
3.995,3.125,0,0,0,0,0
3.996,2.8125,0,0,0,0,0
3.997,2.5,0,0,0,0,0
3.998,2.5,0,0,0,0,0
3.999,2.5,0,0,0,0,0
4,1.875,0,0,0,0,0
4.001,1.25,0,0,0,0,0
4.002,1.25,0,0,0,0,0
4.003,1.25,0,0,0,0,0
4.004,1.25,0,0,0,0,0
4.005,1.25,0,0,0,0,0
4.006,1.5625,0,0,0,0,0
4.007,1.875,0,0,0,0,0
4.008,1.875,0,0,0,0,0
4.009,1.875,0,0,0,0,0
4.01,1.875,0,0,0,0,0
4.011,1.875,0,0,0,0,0
4.012,1.875,0,0,0,0,0
4.013,1.875,0,0,0,0,0
4.014,1.5625,0,0,0,0,0
4.015,1.25,0,0,0,0,0
4.016,1.5625,0,0,0,0,0
4.017,1.875,0,0,0,0,0
4.018,1.875,0,0,0,0,0
4.019,1.25,0,0,0,0,0
4.02,1.25,0,0,0,0,0
4.021,1.25,0,0,0,0,0
4.022,0.9375,0,0,0,0,0
4.023,1.25,0,0,0,0,0
4.024,0.625,0,0,0,0,0
4.025,1.25,0,0,0,0,0
4.026,0.9375,0,0,0,0,0
4.027,1.25,0,0,0,0,0
4.028,0.9375,0,0,0,0,0
4.029,1.25,0,0,0,0,0
4.03,0.625,0,0,0,0,0
4.031,0.625,0,0,0,0,0
4.032,0.625,0,0,0,0,0
4.033,0.625,0,0,0,0,0
4.034,0.625,0,0,0,0,0
4.035,0.625,0,0,0,0,0
4.036,0.625,0,0,0,0,0
4.037,0.625,0,0,0,0,0
4.038,0.625,0,0,0,0,0
4.039,0.625,0,0,0,0,0
4.04,0.625,0,0,0,0,0
4.041,1.25,0,0,0,0,0
4.042,0.9375,0,0,0,0,0
4.043,1.25,0,0,0,0,0
4.044,1.5625,0,0,0,0,0
4.045,1.25,0,0,0,0,0
4.046,1.5625,0,0,0,0,0
4.047,0.625,0,0,0,0,0
4.048,1.25,0,0,0,0,0
4.049,0.625,0,0,0,0,0
4.05,1.5625,0,0,0,0,0
4.051,1.25,0,0,0,0,0
4.052,1.5625,0,0,0,0,0
4.053,1.25,0,0,0,0,0
4.054,0.625,0,0,0,0,0
4.055,1.25,0,0,0,0,0
4.056,0.9375,0,0,0,0,0
4.057,1.25,0,0,0,0,0
4.058,0.625,0,0,0,0,0
4.059,0.625,0,0,0,0,0
4.06,0,0,0,0,0,0
4.061,0.625,0,0,0,0,0
4.062,0.625,0,0,0,0,0
4.063,0.625,0,0,0,0,0
4.064,0.9375,0,0,0,0,0
4.065,0.625,0,0,0,0,0
4.066,1.5625,0,0,0,0,0
4.067,1.25,0,0,0,0,0
4.068,0.9375,0,0,0,0,0
4.069,1.25,0,0,0,0,0
4.07,1.5625,0,0,0,0,0
4.071,1.875,0,0,0,0,0
4.072,1.5625,0,0,0,0,0
4.073,1.25,0,0,0,0,0
4.074,1.5625,0,0,0,0,0
4.075,1.875,0,0,0,0,0
4.076,0.625,0,0,0,0,0
4.077,0.625,0,0,0,0,0
4.078,0.625,0,0,0,0,0
4.079,0.625,0,0,0,0,0
4.08,0.625,0,0,0,0,0
4.081,0.625,0,0,0,0,0
4.082,0.625,0,0,0,0,0
4.083,0.625,0,0,0,0,0
4.084,0.625,0,0,0,0,0
4.085,1.25,0,0,0,0,0
4.086,1.5625,0,0,0,0,0
4.087,1.25,0,0,0,0,0
4.088,1.25,0,0,0,0,0
4.089,1.25,0,0,0,0,0
4.09,1.25,0,0,0,0,0
4.091,1.25,0,0,0,0,0
4.092,0.9375,0,0,0,0,0
4.093,1.25,0,0,0,0,0
4.094,1.5625,0,0,0,0,0
4.095,1.875,0,0,0,0,0
4.096,1.5625,0,0,0,0,0
4.097,1.875,0,0,0,0,0
4.098,1.5625,0,0,0,0,0
4.099,1.25,0,0,0,0,0
4.1,1.875,0,0,0,0,0
4.101,1.875,0,0,0,0,0
4.102,2.1875,0,0,0,0,0
4.103,2.5,0,0,0,0,0
4.104,3.125,0,0,0,0,0
4.105,3.125,0,0,0,0,0
4.106,3.75,0,0,0,0,0
4.107,3.125,0,0,0,0,0
4.108,3.4375,0,0,0,0,0
4.109,3.125,0,0,0,0,0
4.11,3.4375,0,0,0,0,0
4.111,3.75,0,0,0,0,0
4.112,4.0625,0,0,0,0,0
4.113,4.375,0,0,0,0,0
4.114,4.375,0,0,0,0,0
4.115,5,0,0,0,0,0
4.116,5,0,0,0,0,0
4.117,5,0,0,0,0,0
4.118,5,0,0,0,0,0
4.119,5,0,0,0,0,0
4.12,5,0,0,0,0,0
4.121,5,0,0,0,0,0
4.122,5,0,0,0,0,0
4.123,5,0,0,0,0,0
4.124,4.6875,0,0,0,0,0
4.125,4.375,0,0,0,0,0
4.126,4.375,0,0,0,0,0
4.127,4.375,0,0,0,0,0
4.128,5.3125,0,0,0,0,0
4.129,5,0,0,0,0,0
4.13,4.375,0,0,0,0,0
4.131,4.375,0,0,0,0,0
4.132,4.6875,0,0,0,0,0
4.133,5,0,0,0,0,0
4.134,5,0,0,0,0,0
4.135,5,0,0,0,0,0
4.136,5,0,0,0,0,0
4.137,5,0,0,0,0,0
4.138,5,0,0,0,0,0
4.139,5,0,0,0,0,0
4.14,5,0,0,0,0,0
4.141,5,0,0,0,0,0
4.142,4.6875,0,0,0,0,0
4.143,4.375,0,0,0,0,0
4.144,4.6875,0,0,0,0,0
4.145,4.375,0,0,0,0,0
4.146,5.3125,0,0,0,0,0
4.147,5,0,0,0,0,0
4.148,5.3125,0,0,0,0,0
4.149,5.625,0,0,0,0,0
4.15,5,0,0,0,0,0
4.151,5.625,0,0,0,0,0
4.152,4.375,0,0,0,0,0
4.153,4.375,0,0,0,0,0
4.154,4.0625,0,0,0,0,0
4.155,4.375,0,0,0,0,0
4.156,4.0625,0,0,0,0,0
4.157,3.125,0,0,0,0,0
4.158,2.5,0,0,0,0,0
4.159,3.125,0,0,0,0,0
4.16,3.125,0,0,0,0,0
4.161,2.5,0,0,0,0,0
4.162,2.5,0,0,0,0,0
4.163,2.5,0,0,0,0,0
4.164,2.5,0,0,0,0,0
4.165,1.875,0,0,0,0,0
4.166,1.875,0,0,0,0,0
4.167,1.875,0,0,0,0,0
4.168,1.875,0,0,0,0,0
4.169,1.25,0,0,0,0,0
4.17,1.25,0,0,0,0,0
4.171,1.25,0,0,0,0,0
4.172,0.625,0,0,0,0,0
4.173,1.25,0,0,0,0,0
4.174,0.3125,0,0,0,0,0
4.175,0.625,0,0,0,0,0
4.176,0.625,0,0,0,0,0
4.177,0.625,0,0,0,0,0
4.178,0.625,0,0,0,0,0
4.179,0.625,0,0,0,0,0
4.18,0.625,0,0,0,0,0
4.181,0,0,0,0,0,0
4.182,0.3125,0,0,0,0,0
4.183,-0.625,0,0,0,0,0
4.184,0,0,0,0,0,0
4.185,-0.625,0,0,0,0,0
4.186,0,0,0,0,0,0
4.187,0,0,0,0,0,0
4.188,0.3125,0,0,0,0,0
4.189,0.625,0,0,0,0,0
4.19,0.625,0,0,0,0,0
4.191,0.625,0,0,0,0,0
4.192,0,0,0,0,0,0
4.193,0.625,0,0,0,0,0
4.194,0.9375,0,0,0,0,0
4.195,1.25,0,0,0,0,0
4.196,0,0,0,0,0,0
4.197,0,0,0,0,0,0
4.198,0,0,0,0,0,0
4.199,0,0,0,0,0,0
4.2,0.3125,0,0,0,0,0
4.201,0,0,0,0,0,0
4.202,-0.3125,0,0,0,0,0
4.203,-0.625,0,0,0,0,0
4.204,-0.3125,0,0,0,0,0
4.205,0,0,0,0,0,0
4.206,0,0,0,0,0,0
4.207,-0.625,0,0,0,0,0
4.208,-0.625,0,0,0,0,0
4.209,-0.625,0,0,0,0,0
4.21,-0.3125,0,0,0,0,0
4.211,0,0,0,0,0,0
4.212,0,0,0,0,0,0
4.213,0.625,0,0,0,0,0
4.214,0.3125,0,0,0,0,0
4.215,1.25,0,0,0,0,0
4.216,0.3125,0,0,0,0,0
4.217,0.625,0,0,0,0,0
4.218,0,0,0,0,0,0
4.219,0.625,0,0,0,0,0
4.22,-0.3125,0,0,0,0,0
4.221,-0.625,0,0,0,0,0
4.222,-0.625,0,0,0,0,0
4.223,-0.625,0,0,0,0,0
4.224,-0.625,0,0,0,0,0
4.225,-1.25,0,0,0,0,0
4.226,-0.9375,0,0,0,0,0
4.227,-0.625,0,0,0,0,0
4.228,-0.625,0,0,0,0,0
4.229,-1.25,0,0,0,0,0
4.23,-1.25,0,0,0,0,0
4.231,-1.25,0,0,0,0,0
4.232,-1.5625,0,0,0,0,0
4.233,-1.875,0,0,0,0,0
4.234,-1.875,0,0,0,0,0
4.235,-1.25,0,0,0,0,0
4.236,-1.5625,0,0,0,0,0
4.237,-0.625,0,0,0,0,0
4.238,-1.25,0,0,0,0,0
4.239,-1.25,0,0,0,0,0
4.24,-1.25,0,0,0,0,0
4.241,-1.25,0,0,0,0,0
4.242,-0.3125,0,0,0,0,0
4.243,-0.625,0,0,0,0,0
4.244,0,0,0,0,0,0
4.245,-0.625,0,0,0,0,0
4.246,-0.625,0,0,0,0,0
4.247,-0.625,0,0,0,0,0
4.248,0.3125,0,0,0,0,0
4.249,0.625,0,0,0,0,0
4.25,0,0,0,0,0,0
4.251,0.625,0,0,0,0,0
4.252,0.9375,0,0,0,0,0
4.253,1.25,0,0,0,0,0
4.254,1.25,0,0,0,0,0
4.255,1.25,0,0,0,0,0
4.256,0.9375,0,0,0,0,0
4.257,1.25,0,0,0,0,0
4.258,1.25,0,0,0,0,0
4.259,1.25,0,0,0,0,0
4.26,0.625,1,0,0,0,0
4.261,0.625,0,0,0,0,0
4.262,0.625,0,0,0,0,0
4.263,0.625,0,0,0,0,0
4.264,0.625,0,0,0,0,0
4.265,0.625,0,0,0,0,0
4.266,0.625,0,0,0,0,0
4.267,1.25,0,0,0,0,0
4.268,0.625,0,0,0,0,0
4.269,1.25,0,0,0,0,0
4.27,0.625,0,0,0,0,0
4.271,1.25,0,0,0,0,0
4.272,0.3125,0,0,0,0,0
4.273,0.625,0,0,0,0,0
4.274,0,0,0,0,0,0
4.275,0,0,0,0,0,0
4.276,0.9375,0,0,0,0,0
4.277,1.25,0,0,0,0,0
4.278,2.1875,0,0,0,0,0
4.279,3.125,0,0,0,0,0
4.28,3.125,0,0,0,0,0
4.281,3.75,0,0,0,0,0
4.282,4.6875,0,0,0,0,0
4.283,6.25,0,0,0,0,0
4.284,7.5,0,0,0,0,0
4.285,8.75,0,0,0,0,0
4.286,9.0625,0,0,0,0,0
4.287,9.375,0,0,0,0,0
4.288,9.6875,0,0,0,0,0
4.289,11.25,0,0,0,0,0
4.29,12.5,0,0,0,0,0
4.291,13.75,0,0,0,0,0
4.292,15,0,0,0,0,0
4.293,15.625,0,0,0,0,0
4.294,15.938,0,0,0,0,0
4.295,16.875,0,0,0,0,0
4.296,18.438,0,0,0,0,0
4.297,19.375,0,0,0,0,0
4.298,21.25,0,0,0,0,0
4.299,23.75,0,0,0,0,0
4.3,25.625,0,0,0,0,0
4.301,27.5,0,0,0,0,0
4.302,29.375,0,0,0,0,0
4.303,30,0,0,0,0,0
4.304,30.938,0,0,0,0,0
4.305,30.625,0,0,0,0,0
4.306,30.625,0,0,0,0,0
4.307,31.25,0,1,0,0,0
4.308,29.688,0,0,0,0,0
4.309,28.125,0,0,0,0,0
4.31,26.875,0,0,0,0,0
4.311,25.625,0,0,0,0,0
4.312,25,0,0,0,0,0
4.313,22.5,0,0,0,0,0
4.314,21.563,0,0,0,0,0
4.315,20,0,0,0,0,0
4.316,17.813,0,0,0,0,0
4.317,15,0,0,0,0,0
4.318,12.188,0,0,0,0,0
4.319,8.75,0,0,0,0,0
4.32,4.375,0,0,0,0,0
4.321,-1.25,0,0,0,0,0
4.322,-5.9375,0,0,0,0,0
4.323,-11.25,0,0,0,0,0
4.324,-15,0,0,0,0,0
4.325,-18.125,0,0,0,0,0
4.326,-20.938,0,0,0,0,0
4.327,-21.25,0,0,0,0,0
4.328,-21.875,0,0,0,0,0
4.329,-21.875,0,0,0,0,0
4.33,-19.688,0,0,0,0,0
4.331,-17.5,0,0,0,0,0
4.332,-14.688,0,0,0,0,0
4.333,-11.875,0,0,0,0,0
4.334,-9.0625,0,0,0,0,0
4.335,-6.25,0,0,0,0,0
4.336,-3.125,0,0,0,0,0
4.337,-1.875,0,0,0,0,0
4.338,0.625,0,0,0,0,0
4.339,2.5,0,0,0,0,0
4.34,4.0625,0,0,0,0,0
4.341,5,0,0,0,0,0
4.342,6.5625,0,0,0,0,0
4.343,8.75,0,0,0,0,0
4.344,10.313,0,0,0,0,0
4.345,12.5,0,0,0,0,0
4.346,13.438,0,0,0,0,0
4.347,15,0,0,0,0,0
4.348,15,0,0,0,0,0
4.349,15.625,0,0,0,0,0
4.35,16.25,0,0,0,0,0
4.351,16.875,0,0,0,0,0
4.352,17.188,0,0,0,0,0
4.353,17.5,0,0,0,0,0
4.354,17.813,0,0,0,0,0
4.355,17.5,0,0,0,0,0
4.356,18.125,0,0,0,0,0
4.357,18.125,0,0,0,0,0
4.358,19.063,0,0,0,0,0
4.359,19.375,0,0,0,0,0
4.36,19.375,0,0,0,0,0
4.361,19.375,0,0,0,0,0
4.362,19.063,0,0,0,0,0
4.363,19.375,0,0,0,0,0
4.364,19.375,0,0,0,0,0
4.365,20,0,0,0,0,0
4.366,19.063,0,0,0,0,0
4.367,19.375,0,0,0,0,0
4.368,18.75,0,0,0,0,0
4.369,18.125,0,0,0,0,0
4.37,17.813,0,0,0,0,0
4.371,17.5,0,0,0,0,0
4.372,17.5,0,0,0,0,0
4.373,16.875,0,0,0,0,0
4.374,16.25,0,0,0,0,0
4.375,15,0,0,0,0,0
4.376,15.313,0,0,0,0,0
4.377,15,0,0,0,0,0
4.378,15,0,0,0,0,0
4.379,15,0,0,0,0,0
4.38,15,0,0,0,0,0
4.381,15,0,0,0,0,0
4.382,14.375,0,0,0,0,0
4.383,13.75,0,0,0,0,0
4.384,12.813,0,0,0,0,0
4.385,12.5,0,0,0,0,0
4.386,11.875,0,0,0,0,0
4.387,11.25,0,0,0,0,0
4.388,10.313,0,0,0,0,0
4.389,9.375,0,0,0,0,0
4.39,9.0625,0,0,0,0,0
4.391,8.75,0,0,0,0,0
4.392,8.125,0,0,0,0,0
4.393,7.5,0,0,0,0,0
4.394,7.5,0,0,0,0,0
4.395,6.875,0,0,0,0,0
4.396,6.875,0,0,0,0,0
4.397,5.625,0,0,0,0,0
4.398,5.9375,0,0,0,0,0
4.399,5,0,0,0,0,0
4.4,4.6875,0,0,0,0,0
4.401,3.75,0,0,0,0,0
4.402,3.75,0,0,0,0,0
4.403,3.75,0,0,0,0,0
4.404,3.75,0,0,0,0,0
4.405,4.375,0,0,0,0,0
4.406,3.75,0,0,0,0,0
4.407,3.75,0,0,0,0,0
4.408,3.125,0,0,0,0,0
4.409,2.5,0,0,0,0,0
4.41,2.1875,0,0,0,0,0
4.411,2.5,0,0,0,0,0
4.412,2.1875,0,0,0,0,0
4.413,1.25,0,0,0,0,0
4.414,1.25,0,0,0,0,0
4.415,0.625,0,0,0,0,0
4.416,-0.3125,0,0,0,0,0
4.417,-1.25,0,0,0,0,0
4.418,-1.25,0,0,0,0,0
4.419,-1.25,0,0,0,0,0
4.42,-1.25,0,0,0,0,0
4.421,-1.25,0,0,0,0,0
4.422,-1.875,0,0,0,0,0
4.423,-1.875,0,0,0,0,0
4.424,-2.5,0,0,0,0,0
4.425,-1.875,0,0,0,0,0
4.426,-2.1875,0,0,0,0,0
4.427,-1.875,0,0,0,0,0
4.428,-1.875,0,0,0,0,0
4.429,-1.875,0,0,1,0,0
4.43,-1.875,0,0,0,0,0
4.431,-1.25,0,0,0,0,0
4.432,-1.25,0,0,0,0,0
4.433,-1.25,0,0,0,0,0
4.434,-0.625,0,0,0,0,0
4.435,-0.625,0,0,0,0,0
4.436,0.3125,0,0,0,0,0
4.437,0,0,0,0,0,0
4.438,0.3125,0,0,0,0,0
4.439,0,0,0,0,0,0
4.44,0,0,0,0,0,0
4.441,0,0,0,0,0,0
4.442,0,0,0,0,0,0
4.443,0,0,0,0,0,0
4.444,-0.9375,0,0,0,0,0
4.445,-0.625,0,0,0,0,0
4.446,-0.625,0,0,0,0,0
4.447,-0.625,0,0,0,0,0
4.448,-0.3125,0,0,0,0,0
4.449,-0.625,0,0,0,0,0
4.45,-0.3125,0,0,0,0,0
4.451,-0.625,0,0,0,0,0
4.452,-0.625,0,0,0,0,0
4.453,-0.625,0,0,0,0,0
4.454,-0.3125,0,0,0,0,0
4.455,-0.625,0,0,0,0,0
4.456,-0.3125,0,0,0,0,0
4.457,-0.625,0,0,0,0,0
4.458,-0.625,0,0,0,0,0
4.459,-0.625,0,0,0,0,0
4.46,-0.9375,0,0,0,0,0
4.461,-1.25,0,0,0,0,0
4.462,-0.625,0,0,0,0,0
4.463,0,0,0,0,0,0
4.464,-0.625,0,0,0,0,0
4.465,0,0,0,0,0,0
4.466,-0.3125,0,0,0,0,0
4.467,0.625,0,0,0,0,0
4.468,0.3125,0,0,0,0,0
4.469,0.625,0,0,0,0,0
4.47,0.3125,0,0,0,0,0
4.471,0,0,0,0,0,0
4.472,-0.9375,0,0,0,0,0
4.473,-1.25,0,0,0,0,0
4.474,-0.625,0,0,0,0,0
4.475,-1.25,0,0,0,0,0
4.476,-0.625,0,0,0,0,0
4.477,-0.625,0,0,0,0,0
4.478,-0.625,0,0,0,0,0
4.479,-0.625,0,0,0,0,0
4.48,-1.5625,0,0,0,0,0
4.481,-1.875,0,0,0,0,0
4.482,-2.1875,0,0,0,0,0
4.483,-1.875,0,0,0,0,0
4.484,-2.1875,0,0,0,0,0
4.485,-1.25,0,0,0,0,0
4.486,-1.875,0,0,0,0,0
4.487,-1.875,0,0,0,0,0
4.488,-1.5625,0,0,0,0,0
4.489,-1.25,0,0,0,0,0
4.49,-2.1875,0,0,0,0,0
4.491,-1.875,0,0,0,0,0
4.492,-1.875,0,0,0,0,0
4.493,-2.5,0,0,0,0,0
4.494,-2.5,0,0,0,0,0
4.495,-2.5,0,0,0,0,0
4.496,-2.8125,0,0,0,0,0
4.497,-3.125,0,0,0,0,0
4.498,-3.125,0,0,0,0,0
4.499,-3.125,0,0,0,0,0
4.5,-2.8125,0,0,0,0,0
4.501,-3.125,0,0,0,0,0
4.502,-3.4375,0,0,0,0,0
4.503,-3.75,0,0,0,0,0
4.504,-3.4375,0,0,0,0,0
4.505,-3.125,0,0,0,0,0
4.506,-3.4375,0,0,0,0,0
4.507,-3.75,0,0,0,0,0
4.508,-3.4375,0,0,0,0,0
4.509,-3.75,0,0,0,0,0
4.51,-3.75,0,0,0,0,0
4.511,-3.75,0,0,0,0,0
4.512,-3.75,0,0,0,0,0
4.513,-4.375,0,0,0,0,0
4.514,-3.75,0,0,0,0,0
4.515,-4.375,0,0,0,0,0
4.516,-4.375,0,0,0,0,0
4.517,-4.375,0,0,0,0,0
4.518,-3.75,0,0,0,0,0
4.519,-4.375,0,0,0,0,0
4.52,-4.0625,0,0,0,0,0
4.521,-3.75,0,0,0,0,0
4.522,-4.375,0,0,0,0,0
4.523,-4.375,0,0,0,0,0
4.524,-5,0,0,0,0,0
4.525,-5,0,0,0,0,0
4.526,-5,0,0,0,0,0
4.527,-4.375,0,0,0,0,0
4.528,-5,0,0,0,0,0
4.529,-5,0,0,0,0,0
4.53,-5,0,0,0,0,0
4.531,-5,0,0,0,0,0
4.532,-4.375,0,0,0,0,0
4.533,-4.375,0,0,0,0,0
4.534,-4.375,0,0,0,0,0
4.535,-5,0,0,0,0,0
4.536,-4.375,0,0,0,0,0
4.537,-5,0,0,0,0,0
4.538,-5.3125,0,0,0,0,0
4.539,-5.625,0,0,0,0,0
4.54,-5.625,0,0,0,0,0
4.541,-5.625,0,0,0,0,0
4.542,-6.5625,0,0,0,0,0
4.543,-6.875,0,0,0,0,0
4.544,-6.875,0,0,0,0,0
4.545,-6.875,0,0,0,0,0
4.546,-7.5,0,0,0,0,0
4.547,-7.5,0,0,0,0,0
4.548,-7.1875,0,0,0,0,0
4.549,-7.5,0,0,0,0,0
4.55,-7.5,0,0,0,0,0
4.551,-7.5,0,0,0,0,0
4.552,-7.1875,0,0,0,0,0
4.553,-7.5,0,0,0,0,0
4.554,-7.5,0,0,0,0,0
4.555,-7.5,0,0,0,0,0
4.556,-8.4375,0,0,0,0,0
4.557,-8.75,0,0,0,0,0
4.558,-8.75,0,0,0,0,0
4.559,-8.75,0,0,0,0,0
4.56,-9.0625,0,0,0,0,0
4.561,-9.375,0,0,0,0,0
4.562,-9.375,0,0,0,0,0
4.563,-8.75,0,0,0,0,0
4.564,-9.6875,0,0,0,0,0
4.565,-10,0,0,0,0,0
4.566,-10,0,0,0,0,0
4.567,-10,0,0,0,0,0
4.568,-9.6875,0,0,0,0,0
4.569,-10,0,0,0,0,0
4.57,-10,0,0,0,0,0
4.571,-10,0,0,0,0,0
4.572,-9.6875,0,0,0,0,0
4.573,-10,0,0,0,0,0
4.574,-10.313,0,0,0,0,0
4.575,-10.625,0,0,0,0,0
4.576,-10.938,0,0,0,0,0
4.577,-11.25,0,0,0,0,0
4.578,-10.938,0,0,0,0,0
4.579,-11.25,0,0,0,0,0
4.58,-11.25,0,0,0,0,0
4.581,-11.25,0,0,0,0,0
4.582,-11.563,0,0,0,0,0
4.583,-11.875,0,0,0,0,0
4.584,-12.188,0,0,0,0,0
4.585,-11.875,0,0,0,0,0
4.586,-12.188,0,0,0,0,0
4.587,-11.875,0,0,0,0,0
4.588,-11.875,0,0,0,0,0
4.589,-11.875,0,0,0,0,0
4.59,-12.188,0,0,0,0,0
4.591,-12.5,0,0,0,0,0
4.592,-12.5,0,0,0,0,0
4.593,-12.5,0,0,0,1,0
4.594,-11.875,0,0,0,0,0
4.595,-12.5,0,0,0,0,0
4.596,-11.875,0,0,0,0,0
4.597,-11.875,0,0,0,0,0
4.598,-11.875,0,0,0,0,0
4.599,-11.875,0,0,0,0,0
4.6,-11.875,0,0,0,0,0
4.601,-11.875,0,0,0,0,0
4.602,-11.875,0,0,0,0,0
4.603,-11.875,0,0,0,0,0
4.604,-11.875,0,0,0,0,0
4.605,-11.25,0,0,0,0,0
4.606,-10.938,0,0,0,0,0
4.607,-10,0,0,0,0,0
4.608,-11.25,0,0,0,0,0
4.609,-11.25,0,0,0,0,0
4.61,-11.563,0,0,0,0,0
4.611,-11.875,0,0,0,0,0
4.612,-11.563,0,0,0,0,0
4.613,-12.5,0,0,0,0,0
4.614,-11.25,0,0,0,0,0
4.615,-10.625,0,0,0,0,0
4.616,-10,0,0,0,0,0
4.617,-10,0,0,0,0,0
4.618,-9.0625,0,0,0,0,0
4.619,-8.75,0,0,0,0,0
4.62,-9.0625,0,0,0,0,0
4.621,-9.375,0,0,0,0,0
4.622,-9.0625,0,0,0,0,0
4.623,-8.75,0,0,0,0,0
4.624,-8.75,0,0,0,0,0
4.625,-8.125,0,0,0,0,0
4.626,-8.125,0,0,0,0,0
4.627,-7.5,0,0,0,0,0
4.628,-7.1875,0,0,0,0,0
4.629,-6.875,0,0,0,0,0
4.63,-6.25,0,0,0,0,0
4.631,-5.625,0,0,0,0,0
4.632,-5.3125,0,0,0,0,0
4.633,-5.625,0,0,0,0,0
4.634,-4.6875,0,0,0,0,0
4.635,-5,0,0,0,0,0
4.636,-4.375,0,0,0,0,0
4.637,-4.375,0,0,0,0,0
4.638,-3.75,0,0,0,0,0
4.639,-3.75,0,0,0,0,0
4.64,-3.4375,0,0,0,0,0
4.641,-3.75,0,0,0,0,0
4.642,-2.8125,0,0,0,0,0
4.643,-2.5,0,0,0,0,0
4.644,-1.5625,0,0,0,0,0
4.645,-1.25,0,0,0,0,0
4.646,-1.5625,0,0,0,0,0
4.647,-1.25,0,0,0,0,0
4.648,-1.25,0,0,0,0,0
4.649,-0.625,0,0,0,0,0
4.65,-0.3125,0,0,0,0,0
4.651,0.625,0,0,0,0,0
4.652,0.625,0,0,0,0,0
4.653,0.625,0,0,0,0,0
4.654,0.9375,0,0,0,0,0
4.655,0.625,0,0,0,0,0
4.656,0.9375,0,0,0,0,0
4.657,0,0,0,0,0,0
4.658,0.625,0,0,0,0,0
4.659,0.625,0,0,0,0,0
4.66,1.5625,0,0,0,0,0
4.661,1.875,0,0,0,0,0
4.662,1.5625,0,0,0,0,0
4.663,1.875,0,0,0,0,0
4.664,2.5,0,0,0,0,0
4.665,3.125,0,0,0,0,0
4.666,3.125,0,0,0,0,0
4.667,3.125,0,0,0,0,0
4.668,3.125,0,0,0,0,0
4.669,2.5,0,0,0,0,0
4.67,2.5,0,0,0,0,0
4.671,2.5,0,0,0,0,0
4.672,2.5,0,0,0,0,0
4.673,2.5,0,0,0,0,0
4.674,3.4375,0,0,0,0,0
4.675,3.75,0,0,0,0,0
4.676,4.0625,0,0,0,0,0
4.677,4.375,0,0,0,0,0
4.678,4.375,0,0,0,0,0
4.679,4.375,0,0,0,0,0
4.68,4.375,0,0,0,0,0
4.681,4.375,0,0,0,0,0
4.682,3.4375,0,0,0,0,1
4.683,3.75,0,0,0,0,0
4.684,4.0625,0,0,0,0,0
4.685,4.375,0,0,0,0,0
4.686,4.375,0,0,0,0,0
4.687,3.75,0,0,0,0,0
4.688,4.375,0,0,0,0,0
4.689,4.375,0,0,0,0,0
4.69,4.375,0,0,0,0,0
4.691,4.375,0,0,0,0,0
4.692,4.6875,0,0,0,0,0
4.693,4.375,0,0,0,0,0
4.694,4.375,0,0,0,0,0
4.695,4.375,0,0,0,0,0
4.696,4.0625,0,0,0,0,0
4.697,3.75,0,0,0,0,0
4.698,4.375,0,0,0,0,0
4.699,4.375,0,0,0,0,0
4.7,4.375,0,0,0,0,0
4.701,3.75,0,0,0,0,0
4.702,3.75,0,0,0,0,0
4.703,3.75,0,0,0,0,0
4.704,4.0625,0,0,0,0,0
4.705,3.75,0,0,0,0,0
4.706,3.75,0,0,0,0,0
4.707,3.75,0,0,0,0,0
4.708,3.75,0,0,0,0,0
4.709,3.75,0,0,0,0,0
4.71,4.0625,0,0,0,0,0
4.711,4.375,0,0,0,0,0
4.712,4.375,0,0,0,0,0
4.713,4.375,0,0,0,0,0
4.714,4.375,0,0,0,0,0
4.715,4.375,0,0,0,0,0
4.716,4.375,0,0,0,0,0
4.717,4.375,0,0,0,0,0
4.718,4.0625,0,0,0,0,0
4.719,3.75,0,0,0,0,0
4.72,3.4375,0,0,0,0,0
4.721,3.125,0,0,0,0,0
4.722,3.4375,0,0,0,0,0
4.723,3.75,0,0,0,0,0
4.724,3.75,0,0,0,0,0
4.725,4.375,0,0,0,0,0
4.726,3.75,0,0,0,0,0
4.727,3.75,0,0,0,0,0
4.728,3.4375,0,0,0,0,0
4.729,3.125,0,0,0,0,0
4.73,3.125,0,0,0,0,0
4.731,3.125,0,0,0,0,0
4.732,2.8125,0,0,0,0,0
4.733,2.5,0,0,0,0,0
4.734,2.5,0,0,0,0,0
4.735,2.5,0,0,0,0,0
4.736,2.8125,0,0,0,0,0
4.737,2.5,0,0,0,0,0
4.738,3.125,0,0,0,0,0
4.739,3.125,0,0,0,0,0
4.74,3.4375,0,0,0,0,0
4.741,3.75,0,0,0,0,0
4.742,4.0625,0,0,0,0,0
4.743,4.375,0,0,0,0,0
4.744,3.75,0,0,0,0,0
4.745,4.375,0,0,0,0,0
4.746,4.375,0,0,0,0,0
4.747,4.375,0,0,0,0,0
4.748,4.0625,0,0,0,0,0
4.749,3.75,0,0,0,0,0
4.75,4.0625,0,0,0,0,0
4.751,4.375,0,0,0,0,0
4.752,4.375,0,0,0,0,0
4.753,4.375,0,0,0,0,0
4.754,4.375,0,0,0,0,0
4.755,4.375,0,0,0,0,0
4.756,4.0625,0,0,0,0,0
4.757,4.375,0,0,0,0,0
4.758,4.0625,0,0,0,0,0
4.759,4.375,0,0,0,0,0
4.76,4.0625,0,0,0,0,0
4.761,3.75,0,0,0,0,0
4.762,3.125,0,0,0,0,0
4.763,3.75,0,0,0,0,0
4.764,4.0625,0,0,0,0,0
4.765,4.375,0,0,0,0,0
4.766,3.4375,0,0,0,0,0
4.767,3.125,0,0,0,0,0
4.768,3.125,0,0,0,0,0
4.769,3.125,0,0,0,0,0
4.77,3.125,0,0,0,0,0
4.771,3.125,0,0,0,0,0
4.772,2.8125,0,0,0,0,0
4.773,2.5,0,0,0,0,0
4.774,2.5,0,0,0,0,0
4.775,3.125,0,0,0,0,0
4.776,3.125,0,0,0,0,0
4.777,2.5,0,0,0,0,0
4.778,3.125,0,0,0,0,0
4.779,3.125,0,0,0,0,0
4.78,2.8125,0,0,0,0,0
4.781,3.125,0,0,0,0,0
4.782,3.125,0,0,0,0,0
4.783,3.125,0,0,0,0,0
4.784,3.125,0,0,0,0,0
4.785,3.125,0,0,0,0,0
4.786,3.125,0,0,0,0,0
4.787,3.125,0,0,0,0,0
4.788,2.8125,0,0,0,0,0
4.789,2.5,0,0,0,0,0
4.79,2.8125,0,0,0,0,0
4.791,3.125,0,0,0,0,0
4.792,3.125,0,0,0,0,0
4.793,3.125,0,0,0,0,0
4.794,3.125,0,0,0,0,0
4.795,3.125,0,0,0,0,0
4.796,3.125,0,0,0,0,0
4.797,3.125,0,0,0,0,0
4.798,3.125,0,0,0,0,0
4.799,3.125,0,0,0,0,0
4.8,2.8125,0,0,0,0,0
4.801,2.5,0,0,0,0,0
4.802,2.5,0,0,0,0,0
4.803,2.5,0,0,0,0,0
4.804,2.8125,0,0,0,0,0
4.805,3.125,0,0,0,0,0
4.806,3.75,0,0,0,0,0
4.807,3.75,0,0,0,0,0
4.808,3.4375,0,0,0,0,0
4.809,3.125,0,0,0,0,0
4.81,3.125,0,0,0,0,0
4.811,3.75,0,0,0,0,0
4.812,2.8125,0,0,0,0,0
4.813,3.125,0,0,0,0,0
4.814,2.5,0,0,0,0,0
4.815,2.5,0,0,0,0,0
4.816,2.5,0,0,0,0,0
4.817,3.125,0,0,0,0,0
4.818,2.8125,0,0,0,0,0
4.819,3.125,0,0,0,0,0
4.82,2.5,0,0,0,0,0
4.821,1.875,0,0,0,0,0
4.822,1.5625,0,0,0,0,0
4.823,1.25,0,0,0,0,0
4.824,1.5625,0,0,0,0,0
4.825,1.875,0,0,0,0,0
4.826,2.1875,0,0,0,0,0
4.827,2.5,0,0,0,0,0
4.828,1.875,0,0,0,0,0
4.829,1.875,0,0,0,0,0
4.83,1.5625,0,0,0,0,0
4.831,1.875,0,0,0,0,0
4.832,1.875,0,0,0,0,0
4.833,1.25,0,0,0,0,0
4.834,1.875,0,0,0,0,0
4.835,1.25,0,0,0,0,0
4.836,1.875,0,0,0,0,0
4.837,1.25,0,0,0,0,0
4.838,1.875,0,0,0,0,0
4.839,1.25,0,0,0,0,0
4.84,2.1875,0,0,0,0,0
4.841,2.5,0,0,0,0,0
4.842,1.875,0,0,0,0,0
4.843,2.5,0,0,0,0,0
4.844,2.1875,0,0,0,0,0
4.845,2.5,0,0,0,0,0
4.846,1.875,0,0,0,0,0
4.847,1.875,0,0,0,0,0
4.848,1.25,0,0,0,0,0
4.849,1.875,0,0,0,0,0
4.85,1.875,0,0,0,0,0
4.851,1.875,0,0,0,0,0
4.852,2.1875,0,0,0,0,0
4.853,1.875,0,0,0,0,0
4.854,2.5,0,0,0,0,0
4.855,1.875,0,0,0,0,0
4.856,1.875,0,0,0,0,0
4.857,2.5,0,0,0,0,0
4.858,2.1875,0,0,0,0,0
4.859,1.875,0,0,0,0,0
4.86,1.875,0,0,0,0,0
4.861,1.875,0,0,0,0,0
4.862,1.875,0,0,0,0,0
4.863,1.875,0,0,0,0,0
4.864,2.1875,0,0,0,0,0
4.865,1.875,0,0,0,0,0
4.866,2.5,0,0,0,0,0
4.867,2.5,0,0,0,0,0
4.868,2.5,0,0,0,0,0
4.869,2.5,0,0,0,0,0
4.87,2.5,0,0,0,0,0
4.871,2.5,0,0,0,0,0
4.872,2.1875,0,0,0,0,0
4.873,1.875,0,0,0,0,0
4.874,2.5,0,0,0,0,0
4.875,2.5,0,0,0,0,0
4.876,1.875,0,0,0,0,0
4.877,1.875,0,0,0,0,0
4.878,1.875,0,0,0,0,0
4.879,1.875,0,0,0,0,0
4.88,1.875,0,0,0,0,0
4.881,1.875,0,0,0,0,0
4.882,2.1875,0,0,0,0,0
4.883,1.875,0,0,0,0,0
4.884,2.1875,0,0,0,0,0
4.885,2.5,0,0,0,0,0
4.886,3.125,0,0,0,0,0
4.887,3.125,0,0,0,0,0
4.888,2.8125,0,0,0,0,0
4.889,3.125,0,0,0,0,0
4.89,2.8125,0,0,0,0,0
4.891,2.5,0,0,0,0,0
4.892,2.5,0,0,0,0,0
4.893,3.125,0,0,0,0,0
4.894,3.125,0,0,0,0,0
4.895,3.75,0,0,0,0,0
4.896,3.125,0,0,0,0,0
4.897,3.75,0,0,0,0,0
4.898,4.0625,0,0,0,0,0
4.899,4.375,0,0,0,0,0
4.9,4.375,0,0,0,0,0
4.901,4.375,0,0,0,0,0
4.902,4.6875,0,0,0,0,0
4.903,5,0,0,0,0,0
4.904,5.625,0,0,0,0,0
4.905,5.625,0,0,0,0,0
4.906,5.625,0,0,0,0,0
4.907,5.625,0,0,0,0,0
4.908,5.625,0,0,0,0,0
4.909,5.625,0,0,0,0,0
4.91,5.625,0,0,0,0,0
4.911,5.625,0,0,0,0,0
4.912,5.3125,0,0,0,0,0
4.913,5,0,0,0,0,0
4.914,5,0,0,0,0,0
4.915,5,0,0,0,0,0
4.916,5,0,0,0,0,0
4.917,5.625,0,0,0,0,0
4.918,5.3125,0,0,0,0,0
4.919,5.625,0,0,0,0,0
4.92,5.9375,0,0,0,0,0
4.921,5.625,0,0,0,0,0
4.922,5.625,0,0,0,0,0
4.923,5.625,0,0,0,0,0
4.924,5.9375,0,0,0,0,0
4.925,6.25,0,0,0,0,0
4.926,5.9375,0,0,0,0,0
4.927,5.625,0,0,0,0,0
4.928,5.625,0,0,0,0,0
4.929,5.625,0,0,0,0,0
4.93,5.625,0,0,0,0,0
4.931,5.625,0,0,0,0,0
4.932,5.9375,0,0,0,0,0
4.933,6.25,0,0,0,0,0
4.934,5.3125,0,0,0,0,0
4.935,5.625,0,0,0,0,0
4.936,5.3125,0,0,0,0,0
4.937,5.625,0,0,0,0,0
4.938,5.9375,0,0,0,0,0
4.939,5.625,0,0,0,0,0
4.94,6.5625,0,0,0,0,0
4.941,5.625,0,0,0,0,0
4.942,5.9375,0,0,0,0,0
4.943,5.625,0,0,0,0,0
4.944,5,0,0,0,0,0
4.945,4.375,0,0,0,0,0
4.946,3.75,0,0,0,0,0
4.947,3.125,0,0,0,0,0
4.948,3.75,0,0,0,0,0
4.949,3.75,0,0,0,0,0
4.95,3.125,0,0,0,0,0
4.951,3.125,0,0,0,0,0
4.952,3.4375,0,0,0,0,0
4.953,3.75,0,0,0,0,0
4.954,3.125,0,0,0,0,0
4.955,3.125,0,0,0,0,0
4.956,3.125,0,0,0,0,0
4.957,3.125,0,0,0,0,0
4.958,2.1875,0,0,0,0,0
4.959,1.875,0,0,0,0,0
4.96,1.875,0,0,0,0,0
4.961,1.25,0,0,0,0,0
4.962,1.5625,0,0,0,0,0
4.963,0.625,0,0,0,0,0
4.964,1.5625,0,0,0,0,0
4.965,1.875,0,0,0,0,0
4.966,2.1875,0,0,0,0,0
4.967,2.5,0,0,0,0,0
4.968,2.8125,0,0,0,0,0
4.969,3.125,0,0,0,0,0
4.97,1.875,0,0,0,0,0
4.971,1.875,0,0,0,0,0
4.972,1.5625,0,0,0,0,0
4.973,2.5,0,0,0,0,0
4.974,1.875,0,0,0,0,0
4.975,2.5,0,0,0,0,0
4.976,1.875,0,0,0,0,0
4.977,1.25,0,0,0,0,0
4.978,0.9375,0,0,0,0,0
4.979,0.625,0,0,0,0,0
4.98,0.3125,0,0,0,0,0
4.981,-0.625,0,0,0,0,0
4.982,0.3125,0,0,0,0,0
4.983,0.625,0,0,0,0,0
4.984,1.25,0,0,0,0,0
4.985,1.25,0,0,0,0,0
4.986,1.5625,0,0,0,0,0
4.987,1.25,0,0,0,0,0
4.988,1.25,0,0,0,0,0
4.989,1.25,0,0,0,0,0
4.99,0.625,0,0,0,0,0
4.991,0.625,0,0,0,0,0
4.992,0.3125,0,0,0,0,0
4.993,0,0,0,0,0,0
4.994,0.3125,0,0,0,0,0
4.995,0.625,0,0,0,0,0
4.996,0,0,0,0,0,0
4.997,0,0,0,0,0,0
4.998,0,0,0,0,0,0
4.999,0,0,0,0,0,0
5,0,0,0,0,0,0
5.001,0,0,0,0,0,0
5.002,0.625,0,0,0,0,0
5.003,0,0,0,0,0,0
5.004,0.625,0,0,0,0,0
5.005,0,0,0,0,0,0
5.006,0.3125,0,0,0,0,0
5.007,-0.625,0,0,0,0,0
5.008,0,0,0,0,0,0
5.009,-0.625,0,0,0,0,0
5.01,0,0,0,0,0,0
5.011,0.625,0,0,0,0,0
5.012,0.3125,0,0,0,0,0
5.013,0.625,0,0,0,0,0
5.014,0.625,0,0,0,0,0
5.015,0.625,0,0,0,0,0
5.016,0.9375,0,0,0,0,0
5.017,1.25,0,0,0,0,0
5.018,0.9375,0,0,0,0,0
5.019,1.25,0,0,0,0,0
5.02,1.25,0,0,0,0,0
5.021,1.25,0,0,0,0,0
5.022,1.25,0,0,0,0,0
5.023,1.25,0,0,0,0,0
5.024,2.1875,0,0,0,0,0
5.025,1.875,0,0,0,0,0
5.026,2.1875,0,0,0,0,0
5.027,1.25,0,0,0,0,0
5.028,1.25,0,0,0,0,0
5.029,1.25,0,0,0,0,0
5.03,1.25,0,0,0,0,0
5.031,1.875,0,0,0,0,0
5.032,0.9375,0,0,0,0,0
5.033,1.25,0,0,0,0,0
5.034,0.625,0,0,0,0,0
5.035,0.625,0,0,0,0,0
5.036,0.3125,0,0,0,0,0
5.037,0.625,0,0,0,0,0
5.038,0.9375,0,0,0,0,0
5.039,0.625,0,0,0,0,0
5.04,0.625,0,0,0,0,0
5.041,0,0,0,0,0,0
5.042,0.3125,1,0,0,0,0
5.043,0.625,0,0,0,0,0
5.044,0.625,0,0,0,0,0
5.045,0.625,0,0,0,0,0
5.046,0.9375,0,0,0,0,0
5.047,0.625,0,0,0,0,0
5.048,0.9375,0,0,0,0,0
5.049,0.625,0,0,0,0,0
5.05,0.9375,0,0,0,0,0
5.051,1.25,0,0,0,0,0
5.052,1.25,0,0,0,0,0
5.053,1.25,0,0,0,0,0
5.054,0.9375,0,0,0,0,0
5.055,0.625,0,0,0,0,0
5.056,0.9375,0,0,0,0,0
5.057,0,0,0,0,0,0
5.058,0.9375,0,0,0,0,0
5.059,0.625,0,0,0,0,0
5.06,1.875,0,0,0,0,0
5.061,1.875,0,0,0,0,0
5.062,2.5,0,0,0,0,0
5.063,2.5,0,0,0,0,0
5.064,2.8125,0,0,0,0,0
5.065,3.125,0,0,0,0,0
5.066,2.5,0,0,0,0,0
5.067,2.5,0,0,0,0,0
5.068,3.125,0,0,0,0,0
5.069,3.125,0,0,0,0,0
5.07,3.125,0,0,0,0,0
5.071,3.125,0,0,0,0,0
5.072,4.0625,0,0,0,0,0
5.073,5,0,0,0,0,0
5.074,6.5625,0,0,0,0,0
5.075,7.5,0,0,0,0,0
5.076,8.4375,0,0,0,0,0
5.077,8.75,0,0,0,0,0
5.078,9.6875,0,0,0,0,0
5.079,10.625,0,0,0,0,0
5.08,11.563,0,0,0,0,0
5.081,12.5,0,0,0,0,0
5.082,13.438,0,0,0,0,0
5.083,14.375,0,0,0,0,0
5.084,15.625,0,0,0,0,0
5.085,16.875,0,0,0,0,0
5.086,17.188,0,0,0,0,0
5.087,18.125,0,0,0,0,0
5.088,19.688,0,0,0,0,0
5.089,21.25,0,0,0,0,0
5.09,23.438,0,0,0,0,0
5.091,26.25,0,0,0,0,0
5.092,27.813,0,0,0,0,0
5.093,29.375,0,0,0,0,0
5.094,29.688,0,0,0,0,0
5.095,29.375,0,1,0,0,0
5.096,30.313,0,0,0,0,0
5.097,30,0,0,0,0,0
5.098,28.438,0,0,0,0,0
5.099,26.875,0,0,0,0,0
5.1,25.313,0,0,0,0,0
5.101,25,0,0,0,0,0
5.102,23.125,0,0,0,0,0
5.103,21.875,0,0,0,0,0
5.104,20,0,0,0,0,0
5.105,18.75,0,0,0,0,0
5.106,17.813,0,0,0,0,0
5.107,15.625,0,0,0,0,0
5.108,12.813,0,0,0,0,0
5.109,10.625,0,0,0,0,0
5.11,7.8125,0,0,0,0,0
5.111,4.375,0,0,0,0,0
5.112,-1.875,0,0,0,0,0
5.113,-6.875,0,0,0,0,0
5.114,-11.25,0,0,0,0,0
5.115,-15.625,0,0,0,0,0
5.116,-18.125,0,0,0,0,0
5.117,-20,0,0,0,0,0
5.118,-20.625,0,0,0,0,0
5.119,-20,0,0,0,0,0
5.12,-20,0,0,0,0,0
5.121,-18.75,0,0,0,0,0
5.122,-16.563,0,0,0,0,0
5.123,-13.75,0,0,0,0,0
5.124,-9.6875,0,0,0,0,0
5.125,-5.625,0,0,0,0,0
5.126,-4.0625,0,0,0,0,0
5.127,-1.875,0,0,0,0,0
5.128,-0.3125,0,0,0,0,0
5.129,1.875,0,0,0,0,0
5.13,3.125,0,0,0,0,0
5.131,4.375,0,0,0,0,0
5.132,5.9375,0,0,0,0,0
5.133,7.5,0,0,0,0,0
5.134,10,0,0,0,0,0
5.135,11.25,0,0,0,0,0
5.136,13.75,0,0,0,0,0
5.137,15,0,0,0,0,0
5.138,15.938,0,0,0,0,0
5.139,16.25,0,0,0,0,0
5.14,17.188,0,0,0,0,0
5.141,17.5,0,0,0,0,0
5.142,17.813,0,0,0,0,0
5.143,18.125,0,0,0,0,0
5.144,17.188,0,0,0,0,0
5.145,17.5,0,0,0,0,0
5.146,17.5,0,0,0,0,0
5.147,18.125,0,0,0,0,0
5.148,18.125,0,0,0,0,0
5.149,18.125,0,0,0,0,0
5.15,17.813,0,0,0,0,0
5.151,17.5,0,0,0,0,0
5.152,18.125,0,0,0,0,0
5.153,18.125,0,0,0,0,0
5.154,19.375,0,0,0,0,0
5.155,19.375,0,0,0,0,0
5.156,20.625,0,0,0,0,0
5.157,20.625,0,0,0,0,0
5.158,20,0,0,0,0,0
5.159,20,0,0,0,0,0
5.16,19.688,0,0,0,0,0
5.161,19.375,0,0,0,0,0
5.162,18.438,0,0,0,0,0
5.163,17.5,0,0,0,0,0
5.164,16.25,0,0,0,0,0
5.165,16.25,0,0,0,0,0
5.166,15.938,0,0,0,0,0
5.167,16.25,0,0,0,0,0
5.168,16.25,0,0,0,0,0
5.169,16.25,0,0,0,0,0
5.17,15.938,0,0,0,0,0
5.171,15,0,0,0,0,0
5.172,14.688,0,0,0,0,0
5.173,14.375,0,0,0,0,0
5.174,13.75,0,0,0,0,0
5.175,12.5,0,0,0,0,0
5.176,11.875,0,0,0,0,0
5.177,11.25,0,0,0,0,0
5.178,10.938,0,0,0,0,0
5.179,10.625,0,0,0,0,0
5.18,10.313,0,0,0,0,0
5.181,10,0,0,0,0,0
5.182,8.75,0,0,0,0,0
5.183,8.125,0,0,0,0,0
5.184,8.125,0,0,0,0,0
5.185,8.75,0,0,0,0,0
5.186,7.1875,0,0,0,0,0
5.187,6.875,0,0,0,0,0
5.188,5.9375,0,0,0,0,0
5.189,6.25,0,0,0,0,0
5.19,5.3125,0,0,0,0,0
5.191,5,0,0,0,0,0
5.192,5.3125,0,0,0,0,0
5.193,5,0,0,0,0,0
5.194,4.6875,0,0,0,0,0
5.195,3.75,0,0,0,0,0
5.196,3.4375,0,0,0,0,0
5.197,3.125,0,0,0,0,0
5.198,3.4375,0,0,0,0,0
5.199,3.125,0,0,0,0,0
5.2,2.8125,0,0,0,0,0
5.201,2.5,0,0,0,0,0
5.202,2.1875,0,0,0,0,0
5.203,2.5,0,0,0,0,0
5.204,2.1875,0,0,0,0,0
5.205,1.875,0,0,0,0,0
5.206,0.3125,0,0,0,0,0
5.207,-0.625,0,0,0,0,0
5.208,-0.625,0,0,0,0,0
5.209,-0.625,0,0,0,0,0
5.21,-0.3125,0,0,0,0,0
5.211,-0.625,0,0,0,0,0
5.212,-0.625,0,0,0,0,0
5.213,-1.25,0,0,0,0,0
5.214,-0.625,0,0,0,0,0
5.215,-1.25,0,0,0,0,0
5.216,-1.5625,0,0,0,0,0
5.217,-1.875,0,0,0,0,0
5.218,-1.875,0,0,0,0,0
5.219,-1.875,0,0,0,0,0
5.22,-1.5625,0,0,0,0,0
5.221,-1.875,0,0,1,0,0
5.222,-2.5,0,0,0,0,0
5.223,-2.5,0,0,0,0,0
5.224,-2.1875,0,0,0,0,0
5.225,-1.25,0,0,0,0,0
5.226,-2.1875,0,0,0,0,0
5.227,-1.875,0,0,0,0,0
5.228,-1.875,0,0,0,0,0
5.229,-1.875,0,0,0,0,0
5.23,-1.5625,0,0,0,0,0
5.231,-1.25,0,0,0,0,0
5.232,-1.25,0,0,0,0,0
5.233,-1.875,0,0,0,0,0
5.234,-1.25,0,0,0,0,0
5.235,-1.25,0,0,0,0,0
5.236,-0.9375,0,0,0,0,0
5.237,-0.625,0,0,0,0,0
5.238,-1.25,0,0,0,0,0
5.239,-0.625,0,0,0,0,0
5.24,-0.625,0,0,0,0,0
5.241,-0.625,0,0,0,0,0
5.242,-0.3125,0,0,0,0,0
5.243,0,0,0,0,0,0
5.244,-0.625,0,0,0,0,0
5.245,0,0,0,0,0,0
5.246,0,0,0,0,0,0
5.247,0,0,0,0,0,0
5.248,-0.3125,0,0,0,0,0
5.249,-0.625,0,0,0,0,0
5.25,-0.9375,0,0,0,0,0
5.251,-1.25,0,0,0,0,0
5.252,-0.9375,0,0,0,0,0
5.253,-1.25,0,0,0,0,0
5.254,-0.625,0,0,0,0,0
5.255,-1.25,0,0,0,0,0
5.256,-0.3125,0,0,0,0,0
5.257,-0.625,0,0,0,0,0
5.258,-0.9375,0,0,0,0,0
5.259,-1.25,0,0,0,0,0
5.26,-1.5625,0,0,0,0,0
5.261,-2.5,0,0,0,0,0
5.262,-2.8125,0,0,0,0,0
5.263,-2.5,0,0,0,0,0
5.264,-2.5,0,0,0,0,0
5.265,-1.25,0,0,0,0,0
5.266,-1.25,0,0,0,0,0
5.267,-1.25,0,0,0,0,0
5.268,-0.625,0,0,0,0,0
5.269,-0.625,0,0,0,0,0
5.27,-0.9375,0,0,0,0,0
5.271,-1.25,0,0,0,0,0
5.272,-0.625,0,0,0,0,0
5.273,-1.25,0,0,0,0,0
5.274,-0.9375,0,0,0,0,0
5.275,-1.875,0,0,0,0,0
5.276,-1.875,0,0,0,0,0
5.277,-1.875,0,0,0,0,0
5.278,-1.5625,0,0,0,0,0
5.279,-1.875,0,0,0,0,0
5.28,-1.25,0,0,0,0,0
5.281,-1.25,0,0,0,0,0
5.282,-1.875,0,0,0,0,0
5.283,-1.875,0,0,0,0,0
5.284,-1.875,0,0,0,0,0
5.285,-1.875,0,0,0,0,0
5.286,-1.875,0,0,0,0,0
5.287,-1.875,0,0,0,0,0
5.288,-1.875,0,0,0,0,0
5.289,-1.875,0,0,0,0,0
5.29,-2.1875,0,0,0,0,0
5.291,-1.875,0,0,0,0,0
5.292,-1.875,0,0,0,0,0
5.293,-1.875,0,0,0,0,0
5.294,-2.1875,0,0,0,0,0
5.295,-2.5,0,0,0,0,0
5.296,-2.1875,0,0,0,0,0
5.297,-1.875,0,0,0,0,0
5.298,-2.8125,0,0,0,0,0
5.299,-3.125,0,0,0,0,0
5.3,-3.125,0,0,0,0,0
5.301,-3.125,0,0,0,0,0
5.302,-4.0625,0,0,0,0,0
5.303,-3.75,0,0,0,0,0
5.304,-4.375,0,0,0,0,0
5.305,-4.375,0,0,0,0,0
5.306,-4.375,0,0,0,0,0
5.307,-3.75,0,0,0,0,0
5.308,-4.0625,0,0,0,0,0
5.309,-3.75,0,0,0,0,0
5.31,-3.75,0,0,0,0,0
5.311,-4.375,0,0,0,0,0
5.312,-4.375,0,0,0,0,0
5.313,-4.375,0,0,0,0,0
5.314,-3.4375,0,0,0,0,0
5.315,-3.75,0,0,0,0,0
5.316,-3.4375,0,0,0,0,0
5.317,-3.75,0,0,0,0,0
5.318,-4.375,0,0,0,0,0
5.319,-5,0,0,0,0,0
5.32,-5.3125,0,0,0,0,0
5.321,-5.625,0,0,0,0,0
5.322,-5.9375,0,0,0,0,0
5.323,-5.625,0,0,0,0,0
5.324,-6.25,0,0,0,0,0
5.325,-5.625,0,0,0,0,0
5.326,-6.25,0,0,0,0,0
5.327,-6.25,0,0,0,0,0
5.328,-6.25,0,0,0,0,0
5.329,-6.25,0,0,0,0,0
5.33,-5.625,0,0,0,0,0
5.331,-5.625,0,0,0,0,0
5.332,-5.9375,0,0,0,0,0
5.333,-6.25,0,0,0,0,0
5.334,-6.25,0,0,0,0,0
5.335,-6.875,0,0,0,0,0
5.336,-6.875,0,0,0,0,0
5.337,-6.875,0,0,0,0,0
5.338,-7.5,0,0,0,0,0
5.339,-7.5,0,0,0,0,0
5.34,-7.1875,0,0,0,0,0
5.341,-6.875,0,0,0,0,0
5.342,-7.5,0,0,0,0,0
5.343,-7.5,0,0,0,0,0
5.344,-7.1875,0,0,0,0,0
5.345,-7.5,0,0,0,0,0
5.346,-8.125,0,0,0,0,0
5.347,-8.75,0,0,0,0,0
5.348,-8.75,0,0,0,0,0
5.349,-8.75,0,0,0,0,0
5.35,-8.4375,0,0,0,0,0
5.351,-8.75,0,0,0,0,0
5.352,-8.75,0,0,0,0,0
5.353,-9.375,0,0,0,0,0
5.354,-10,0,0,0,0,0
5.355,-10.625,0,0,0,0,0
5.356,-10.313,0,0,0,0,0
5.357,-10,0,0,0,0,0
5.358,-10.625,0,0,0,0,0
5.359,-10.625,0,0,0,0,0
5.36,-10.625,0,0,0,0,0
5.361,-10.625,0,0,0,0,0
5.362,-11.25,0,0,0,0,0
5.363,-11.25,0,0,0,0,0
5.364,-11.25,0,0,0,0,0
5.365,-11.25,0,0,0,0,0
5.366,-11.25,0,0,0,0,0
5.367,-11.25,0,0,0,0,0
5.368,-11.563,0,0,0,0,0
5.369,-11.25,0,0,0,0,0
5.37,-10.938,0,0,0,0,0
5.371,-10.625,0,0,0,0,0
5.372,-10.938,0,0,0,0,0
5.373,-11.25,0,0,0,0,0
5.374,-10.938,0,0,0,0,0
5.375,-11.875,0,0,0,0,0
5.376,-11.875,0,0,0,0,0
5.377,-11.875,0,0,0,0,0
5.378,-11.875,0,0,0,0,0
5.379,-11.875,0,0,0,0,0
5.38,-11.875,0,0,0,1,0
5.381,-11.875,0,0,0,0,0
5.382,-12.188,0,0,0,0,0
5.383,-11.875,0,0,0,0,0
5.384,-12.813,0,0,0,0,0
5.385,-12.5,0,0,0,0,0
5.386,-12.5,0,0,0,0,0
5.387,-12.5,0,0,0,0,0
5.388,-12.188,0,0,0,0,0
5.389,-11.875,0,0,0,0,0
5.39,-11.875,0,0,0,0,0
5.391,-11.875,0,0,0,0,0
5.392,-12.188,0,0,0,0,0
5.393,-12.5,0,0,0,0,0
5.394,-12.188,0,0,0,0,0
5.395,-12.5,0,0,0,0,0
5.396,-10.938,0,0,0,0,0
5.397,-10.625,0,0,0,0,0
5.398,-10.313,0,0,0,0,0
5.399,-10.625,0,0,0,0,0
5.4,-10.938,0,0,0,0,0
5.401,-10.625,0,0,0,0,0
5.402,-11.563,0,0,0,0,0
5.403,-11.25,0,0,0,0,0
5.404,-11.25,0,0,0,0,0
5.405,-10.625,0,0,0,0,0
5.406,-10.625,0,0,0,0,0
5.407,-10,0,0,0,0,0
5.408,-10,0,0,0,0,0
5.409,-10,0,0,0,0,0
5.41,-9.6875,0,0,0,0,0
5.411,-8.75,0,0,0,0,0
5.412,-7.8125,0,0,0,0,0
5.413,-7.5,0,0,0,0,0
5.414,-7.1875,0,0,0,0,0
5.415,-7.5,0,0,0,0,0
5.416,-6.875,0,0,0,0,0
5.417,-6.875,0,0,0,0,0
5.418,-7.1875,0,0,0,0,0
5.419,-6.875,0,0,0,0,0
5.42,-6.25,0,0,0,0,0
5.421,-5.625,0,0,0,0,0
5.422,-5.3125,0,0,0,0,0
5.423,-4.375,0,0,0,0,0
5.424,-5,0,0,0,0,0
5.425,-4.375,0,0,0,0,0
5.426,-4.375,0,0,0,0,0
5.427,-3.75,0,0,0,0,0
5.428,-4.0625,0,0,0,0,0
5.429,-3.75,0,0,0,0,0
5.43,-3.75,0,0,0,0,0
5.431,-3.125,0,0,0,0,0
5.432,-3.125,0,0,0,0,0
5.433,-2.5,0,0,0,0,0
5.434,-2.1875,0,0,0,0,0
5.435,-1.875,0,0,0,0,0
5.436,-1.25,0,0,0,0,0
5.437,-1.25,0,0,0,0,0
5.438,-0.3125,0,0,0,0,0
5.439,0,0,0,0,0,0
5.44,0.3125,0,0,0,0,0
5.441,0,0,0,0,0,0
5.442,-0.3125,0,0,0,0,0
5.443,0,0,0,0,0,0
5.444,0.3125,0,0,0,0,0
5.445,1.25,0,0,0,0,0
5.446,0.9375,0,0,0,0,0
5.447,1.875,0,0,0,0,0
5.448,1.875,0,0,0,0,0
5.449,2.5,0,0,0,0,0
5.45,2.8125,0,0,0,0,0
5.451,3.125,0,0,0,0,0
5.452,3.75,0,0,0,0,0
5.453,3.75,0,0,0,0,0
5.454,4.0625,0,0,0,0,0
5.455,4.375,0,0,0,0,0
5.456,3.75,0,0,0,0,0
5.457,3.75,0,0,0,0,0
5.458,3.75,0,0,0,0,0
5.459,3.75,0,0,0,0,1
5.46,4.0625,0,0,0,0,0
5.461,4.375,0,0,0,0,0
5.462,4.0625,0,0,0,0,0
5.463,4.375,0,0,0,0,0
5.464,4.0625,0,0,0,0,0
5.465,3.75,0,0,0,0,0
5.466,3.75,0,0,0,0,0
5.467,3.75,0,0,0,0,0
5.468,3.75,0,0,0,0,0
5.469,3.75,0,0,0,0,0
5.47,4.375,0,0,0,0,0
5.471,4.375,0,0,0,0,0
5.472,4.6875,0,0,0,0,0
5.473,4.375,0,0,0,0,0
5.474,4.375,0,0,0,0,0
5.475,4.375,0,0,0,0,0
5.476,3.75,0,0,0,0,0
5.477,4.375,0,0,0,0,0
5.478,4.6875,0,0,0,0,0
5.479,5,0,0,0,0,0
5.48,4.6875,0,0,0,0,0
5.481,4.375,0,0,0,0,0
5.482,4.375,0,0,0,0,0
5.483,5,0,0,0,0,0
5.484,4.6875,0,0,0,0,0
5.485,4.375,0,0,0,0,0
5.486,3.4375,0,0,0,0,0
5.487,3.125,0,0,0,0,0
5.488,3.125,0,0,0,0,0
5.489,3.125,0,0,0,0,0
5.49,2.5,0,0,0,0,0
5.491,2.5,0,0,0,0,0
5.492,2.1875,0,0,0,0,0
5.493,1.875,0,0,0,0,0
5.494,1.25,0,0,0,0,0
5.495,1.25,0,0,0,0,0
5.496,1.5625,0,0,0,0,0
5.497,1.875,0,0,0,0,0
5.498,1.5625,0,0,0,0,0
