0,0.625,0,0,0,0,0
0.001,1.875,0,0,0,0,0
0.002,1.5625,0,0,0,0,0
0.003,1.875,0,0,0,0,0
0.004,1.5625,0,0,0,0,0
0.005,1.25,0,0,0,0,0
0.006,1.25,0,0,0,0,0
0.007,1.25,0,0,0,0,0
0.008,1.875,0,0,0,0,0
0.009,1.25,0,0,0,0,0
0.01,1.25,0,0,0,0,0
0.011,1.25,0,0,0,0,0
0.012,1.5625,0,0,0,0,0
0.013,1.875,0,0,0,0,0
0.014,1.875,0,0,0,0,0
0.015,1.875,0,0,0,0,0
0.016,1.875,0,0,0,0,0
0.017,1.875,0,0,0,0,0
0.018,2.1875,0,0,0,0,0
0.019,1.875,0,0,0,0,0
0.02,2.1875,0,0,0,0,0
0.021,2.5,0,0,0,0,0
0.022,2.5,0,0,0,0,0
0.023,1.875,0,0,0,0,0
0.024,1.5625,0,0,0,0,0
0.025,1.25,0,0,0,0,0
0.026,1.25,0,0,0,0,0
0.027,1.875,0,0,0,0,0
0.028,1.875,0,0,0,0,0
0.029,1.875,0,0,0,0,0
0.03,2.1875,0,0,0,0,0
0.031,2.5,0,0,0,0,0
0.032,2.1875,0,0,0,0,0
0.033,1.875,0,0,0,0,0
0.034,2.1875,0,0,0,0,0
0.035,2.5,0,0,0,0,0
0.036,2.5,0,0,0,0,0
0.037,2.5,0,0,0,0,0
0.038,1.875,0,0,0,0,0
0.039,2.5,0,0,0,0,0
0.04,2.8125,0,0,0,0,0
0.041,3.125,0,0,0,0,0
0.042,2.8125,0,0,0,0,0
0.043,2.5,0,0,0,0,0
0.044,2.5,0,0,0,0,0
0.045,2.5,0,0,0,0,0
0.046,2.5,0,0,0,0,0
0.047,2.5,0,0,0,0,0
0.048,2.1875,0,0,0,0,0
0.049,1.875,0,0,0,0,0
0.05,1.875,0,0,0,0,0
0.051,1.875,0,0,0,0,0
0.052,1.25,0,0,0,0,0
0.053,1.875,0,0,0,0,0
0.054,2.1875,0,0,0,0,0
0.055,2.5,0,0,0,0,0
0.056,1.875,0,0,0,0,0
0.057,2.5,0,0,0,0,0
0.058,2.1875,0,0,0,0,0
0.059,2.5,0,0,0,0,0
0.06,2.5,0,0,0,0,0
0.061,1.875,0,0,0,0,0
0.062,1.875,0,0,0,0,0
0.063,1.875,0,0,0,0,0
0.064,1.875,0,0,0,0,0
0.065,1.875,0,0,0,0,0
0.066,1.875,0,0,0,0,0
0.067,1.875,0,0,0,0,0
0.068,1.5625,0,0,0,0,0
0.069,1.25,0,0,0,0,0
0.07,1.25,0,0,0,0,0
0.071,1.25,0,0,0,0,0
0.072,1.25,0,0,0,0,0
0.073,1.25,0,0,0,0,0
0.074,1.25,0,0,0,0,0
0.075,1.25,0,0,0,0,0
0.076,1.5625,0,0,0,0,0
0.077,1.875,0,0,0,0,0
0.078,1.875,0,0,0,0,0
0.079,1.875,0,0,0,0,0
0.08,2.1875,0,0,0,0,0
0.081,2.5,0,0,0,0,0
0.082,2.1875,0,0,0,0,0
0.083,1.875,0,0,0,0,0
0.084,1.875,0,0,0,0,0
0.085,1.875,0,0,0,0,0
0.086,1.5625,0,0,0,0,0
0.087,1.25,0,0,0,0,0
0.088,1.5625,0,0,0,0,0
0.089,1.875,0,0,0,0,0
0.09,1.5625,0,0,0,0,0
0.091,1.25,0,0,0,0,0
0.092,0.9375,0,0,0,0,0
0.093,0.625,0,0,0,0,0
0.094,1.25,0,0,0,0,0
0.095,1.875,0,0,0,0,0
0.096,1.25,0,0,0,0,0
0.097,1.875,0,0,0,0,0
0.098,1.875,0,0,0,0,0
0.099,1.25,0,0,0,0,0
0.1,1.25,0,0,0,0,0
0.101,1.25,0,0,0,0,0
0.102,1.25,0,0,0,0,0
0.103,1.25,0,0,0,0,0
0.104,0.9375,0,0,0,0,0
0.105,0.625,0,0,0,0,0
0.106,1.5625,0,0,0,0,0
0.107,1.25,0,0,0,0,0
0.108,1.5625,0,0,0,0,0
0.109,1.875,0,0,0,0,0
0.11,1.5625,0,0,0,0,0
0.111,1.25,0,0,0,0,0
0.112,1.25,0,0,0,0,0
0.113,1.25,0,0,0,0,0
0.114,1.5625,0,0,0,0,0
0.115,1.875,0,0,0,0,0
0.116,1.5625,0,0,0,0,0
0.117,1.25,0,0,0,0,0
0.118,1.25,0,0,0,0,0
0.119,1.875,0,0,0,0,0
0.12,1.5625,0,0,0,0,0
0.121,1.25,0,0,0,0,0
0.122,1.875,0,0,0,0,0
0.123,1.875,0,0,0,0,0
0.124,1.875,0,0,0,0,0
0.125,1.875,0,0,0,0,0
0.126,1.875,0,0,0,0,0
0.127,1.875,0,0,0,0,0
0.128,1.875,0,0,0,0,0
0.129,1.875,0,0,0,0,0
0.13,1.875,0,0,0,0,0
0.131,1.875,0,0,0,0,0
0.132,1.5625,0,0,0,0,0
0.133,1.25,0,0,0,0,0
0.134,1.5625,0,0,0,0,0
0.135,1.875,0,0,0,0,0
0.136,1.875,0,0,0,0,0
0.137,1.875,0,0,0,0,0
0.138,1.5625,0,0,0,0,0
0.139,1.25,0,0,0,0,0
0.14,1.5625,0,0,0,0,0
0.141,1.875,0,0,0,0,0
0.142,1.875,0,0,0,0,0
0.143,1.875,0,0,0,0,0
0.144,1.5625,0,0,0,0,0
0.145,1.875,0,0,0,0,0
0.146,1.875,0,0,0,0,0
0.147,2.5,0,0,0,0,0
0.148,1.875,0,0,0,0,0
0.149,2.5,0,0,0,0,0
0.15,1.875,0,0,0,0,0
0.151,2.5,0,0,0,0,0
0.152,2.1875,0,0,0,0,0
0.153,1.875,0,0,0,0,0
0.154,1.5625,0,0,0,0,0
0.155,1.875,0,0,0,0,0
0.156,2.1875,0,0,0,0,0
0.157,2.5,0,0,0,0,0
0.158,2.5,0,0,0,0,0
0.159,2.5,0,0,0,0,0
0.16,2.8125,0,0,0,0,0
0.161,1.875,0,0,0,0,0
0.162,2.8125,0,0,0,0,0
0.163,3.125,0,0,0,0,0
0.164,3.75,0,0,0,0,0
0.165,4.375,0,0,0,0,0
0.166,4.0625,0,0,0,0,0
0.167,4.375,0,0,0,0,0
0.168,3.75,0,0,0,0,0
0.169,3.75,0,0,0,0,0
0.17,3.75,0,0,0,0,0
0.171,3.75,0,0,0,0,0
0.172,3.4375,0,0,0,0,0
0.173,3.125,0,0,0,0,0
0.174,4.0625,0,0,0,0,0
0.175,3.75,0,0,0,0,0
0.176,3.75,0,0,0,0,0
0.177,3.75,0,0,0,0,0
0.178,3.75,0,0,0,0,0
0.179,3.75,0,0,0,0,0
0.18,3.75,0,0,0,0,0
0.181,3.75,0,0,0,0,0
0.182,3.75,0,0,0,0,0
0.183,3.75,0,0,0,0,0
0.184,4.375,0,0,0,0,0
0.185,4.375,0,0,0,0,0
0.186,3.75,0,0,0,0,0
0.187,4.375,0,0,0,0,0
0.188,4.375,0,0,0,0,0
0.189,4.375,0,0,0,0,0
0.19,4.6875,0,0,0,0,0
0.191,5,0,0,0,0,0
0.192,4.6875,0,0,0,0,0
0.193,4.375,0,0,0,0,0
0.194,4.6875,0,0,0,0,0
0.195,5,0,0,0,0,0
0.196,4.6875,0,0,0,0,0
0.197,4.375,0,0,0,0,0
0.198,4.6875,0,0,0,0,0
0.199,4.375,0,0,0,0,0
0.2,4.375,0,0,0,0,0
0.201,4.375,0,0,0,0,0
0.202,5,0,0,0,0,0
0.203,5,0,0,0,0,0
0.204,4.375,0,0,0,0,0
0.205,4.375,0,0,0,0,0
0.206,4.375,0,0,0,0,0
0.207,3.75,0,0,0,0,0
0.208,3.125,0,0,0,0,0
0.209,2.5,0,0,0,0,0
0.21,2.5,0,0,0,0,0
0.211,2.5,0,0,0,0,0
0.212,2.1875,0,0,0,0,0
0.213,2.5,0,0,0,0,0
0.214,2.5,0,0,0,0,0
0.215,2.5,0,0,0,0,0
0.216,2.8125,0,0,0,0,0
0.217,2.5,0,0,0,0,0
0.218,2.5,0,0,0,0,0
0.219,2.5,0,0,0,0,0
0.22,1.5625,0,0,0,0,0
0.221,1.25,0,0,0,0,0
0.222,1.25,0,0,0,0,0
0.223,1.25,0,0,0,0,0
0.224,1.25,0,0,0,0,0
0.225,1.25,0,0,0,0,0
0.226,1.25,0,0,0,0,0
0.227,1.25,0,0,0,0,0
0.228,0.625,0,0,0,0,0
0.229,0.625,0,0,0,0,0
0.23,1.25,0,0,0,0,0
0.231,1.25,0,0,0,0,0
0.232,1.875,0,0,0,0,0
0.233,1.875,0,0,0,0,0
0.234,1.875,0,0,0,0,0
0.235,1.875,0,0,0,0,0
0.236,1.875,0,0,0,0,0
0.237,1.875,0,0,0,0,0
0.238,1.875,0,0,0,0,0
0.239,1.875,0,0,0,0,0
0.24,1.875,0,0,0,0,0
0.241,1.875,0,0,0,0,0
0.242,1.875,0,0,0,0,0
0.243,1.875,0,0,0,0,0
0.244,2.1875,0,0,0,0,0
0.245,2.5,0,0,0,0,0
0.246,2.8125,0,0,0,0,0
0.247,3.125,0,0,0,0,0
0.248,2.8125,0,0,0,0,0
0.249,2.5,0,0,0,0,0
0.25,1.5625,0,0,0,0,0
0.251,0.625,0,0,0,0,0
0.252,0.3125,0,0,0,0,0
0.253,0,0,0,0,0,0
0.254,0.3125,0,0,0,0,0
0.255,0.625,0,0,0,0,0
0.256,0.9375,0,0,0,0,0
0.257,1.25,0,0,0,0,0
0.258,0.9375,0,0,0,0,0
0.259,1.25,0,0,0,0,0
0.26,0.9375,0,0,0,0,0
0.261,0.625,0,0,0,0,0
0.262,0.625,0,0,0,0,0
0.263,0.625,0,0,0,0,0
0.264,0.625,0,0,0,0,0
0.265,0.625,0,0,0,0,0
0.266,0.625,0,0,0,0,0
0.267,0.625,0,0,0,0,0
0.268,0.9375,0,0,0,0,0
0.269,0.625,0,0,0,0,0
0.27,1.25,0,0,0,0,0
0.271,1.25,0,0,0,0,0
0.272,0,0,0,0,0,0
0.273,0,0,0,0,0,0
0.274,-0.3125,0,0,0,0,0
0.275,-0.625,0,0,0,0,0
0.276,-0.3125,0,0,0,0,0
0.277,0,0,0,0,0,0
0.278,0,0,0,0,0,0
0.279,0,0,0,0,0,0
0.28,0,0,0,0,0,0
0.281,0,0,0,0,0,0
0.282,0,0,0,0,0,0
0.283,-0.625,0,0,0,0,0
0.284,0,0,0,0,0,0
0.285,0,0,0,0,0,0
0.286,0,0,0,0,0,0
0.287,0,0,0,0,0,0
0.288,-0.9375,0,0,0,0,0
0.289,-0.625,0,0,0,0,0
0.29,-0.625,0,0,0,0,0
0.291,-0.625,0,0,0,0,0
0.292,-0.625,0,0,0,0,0
0.293,-0.625,0,0,0,0,0
0.294,-0.3125,0,0,0,0,0
0.295,-0.625,0,0,0,0,0
0.296,-0.3125,0,0,0,0,0
0.297,-1.25,0,0,0,0,0
0.298,-1.25,0,0,0,0,0
0.299,-1.25,0,0,0,0,0
0.3,-0.625,0,0,0,0,0
0.301,-0.625,0,0,0,0,0
0.302,-0.3125,0,0,0,0,0
0.303,0,0,0,0,0,0
0.304,-0.3125,0,0,0,0,0
0.305,-0.625,0,0,0,0,0
0.306,0,0,0,0,0,0
0.307,0,0,0,0,0,0
0.308,0,0,0,0,0,0
0.309,0,0,0,0,0,0
0.31,0.3125,0,0,0,0,0
0.311,0.625,0,0,0,0,0
0.312,0.625,0,0,0,0,0
0.313,0.625,0,0,0,0,0
0.314,0.9375,0,0,0,0,0
0.315,0.625,0,0,0,0,0
0.316,0.625,0,0,0,0,0
0.317,0.625,1,0,0,0,0
0.318,1.25,0,0,0,0,0
0.319,1.25,0,0,0,0,0
0.32,1.5625,0,0,0,0,0
0.321,1.25,0,0,0,0,0
0.322,1.25,0,0,0,0,0
0.323,1.25,0,0,0,0,0
0.324,0.625,0,0,0,0,0
0.325,0.625,0,0,0,0,0
0.326,0.9375,0,0,0,0,0
0.327,0.625,0,0,0,0,0
0.328,0.9375,0,0,0,0,0
0.329,0.625,0,0,0,0,0
0.33,-0.3125,0,0,0,0,0
0.331,-0.625,0,0,0,0,0
0.332,-0.625,0,0,0,0,0
0.333,-0.625,0,0,0,0,0
0.334,0.9375,0,0,0,0,0
0.335,2.5,0,0,0,0,0
0.336,3.125,0,0,0,0,0
0.337,3.125,0,0,0,0,0
0.338,3.75,0,0,0,0,0
0.339,4.375,0,0,0,0,0
0.34,5.3125,0,0,0,0,0
0.341,6.875,0,0,0,0,0
0.342,8.4375,0,0,0,0,0
0.343,9.375,0,0,0,0,0
0.344,8.75,0,0,0,0,0
0.345,9.375,0,0,0,0,0
0.346,10.625,0,0,0,0,0
0.347,11.25,0,0,0,0,0
0.348,12.5,0,0,0,0,0
0.349,13.75,0,0,0,0,0
0.35,15.313,0,0,0,0,0
0.351,17.5,0,0,0,0,0
0.352,19.375,0,0,0,0,0
0.353,21.25,0,0,0,0,0
0.354,23.438,0,0,0,0,0
0.355,25,0,0,0,0,0
0.356,25.625,0,0,0,0,0
0.357,26.25,0,0,0,0,0
0.358,27.188,0,0,0,0,0
0.359,27.5,0,0,0,0,0
0.36,26.563,0,0,0,0,0
0.361,26.25,0,0,0,0,0
0.362,26.25,0,0,0,0,0
0.363,25.625,0,0,0,0,0
0.364,25,0,1,0,0,0
0.365,23.75,0,0,0,0,0
0.366,22.5,0,0,0,0,0
0.367,21.25,0,0,0,0,0
0.368,20,0,0,0,0,0
0.369,18.75,0,0,0,0,0
0.37,17.188,0,0,0,0,0
0.371,15,0,0,0,0,0
0.372,11.875,0,0,0,0,0
0.373,6.875,0,0,0,0,0
0.374,1.25,0,0,0,0,0
0.375,-2.5,0,0,0,0,0
0.376,-6.25,0,0,0,0,0
0.377,-9.375,0,0,0,0,0
0.378,-12.188,0,0,0,0,0
0.379,-13.75,0,0,0,0,0
0.38,-14.688,0,0,0,0,0
0.381,-15,0,0,0,0,0
0.382,-15.313,0,0,0,0,0
0.383,-15.625,0,0,0,0,0
0.384,-13.438,0,0,0,0,0
0.385,-11.25,0,0,0,0,0
0.386,-10.313,0,0,0,0,0
0.387,-10,0,0,0,0,0
0.388,-10.313,0,0,0,0,0
0.389,-10.625,0,0,0,0,0
0.39,-10.313,0,0,0,0,0
0.391,-10,0,0,0,0,0
0.392,-8.75,0,0,0,0,0
0.393,-8.125,0,0,0,0,0
0.394,-7.1875,0,0,0,0,0
0.395,-5.625,0,0,0,0,0
0.396,-5.3125,0,0,0,0,0
0.397,-4.375,0,0,0,0,0
0.398,-3.75,0,0,0,0,0
0.399,-3.125,0,0,0,0,0
0.4,-3.125,0,0,0,0,0
0.401,-3.125,0,0,0,0,0
0.402,-2.8125,0,0,0,0,0
0.403,-2.5,0,0,0,0,0
0.404,-2.8125,0,0,0,0,0
0.405,-2.5,0,0,0,0,0
0.406,-3.75,0,0,0,0,0
0.407,-4.375,0,0,0,0,0
0.408,-4.375,0,0,0,0,0
0.409,-4.375,0,0,0,0,0
0.41,-4.375,0,0,0,0,0
0.411,-4.375,0,0,0,0,0
0.412,-4.375,0,0,0,0,0
0.413,-4.375,0,0,0,0,0
0.414,-4.6875,0,0,0,0,0
0.415,-5,0,0,0,0,0
0.416,-5,0,0,0,0,0
0.417,-5,0,0,0,0,0
0.418,-5.3125,0,0,0,0,0
0.419,-5.625,0,0,0,0,0
0.42,-5,0,0,0,0,0
0.421,-4.375,0,0,0,0,0
0.422,-4.375,0,0,0,0,0
0.423,-4.375,0,0,0,0,0
0.424,-4.6875,0,0,0,0,0
0.425,-5.625,0,0,0,0,0
0.426,-5.625,0,0,0,0,0
0.427,-5.625,0,0,0,0,0
0.428,-5.3125,0,0,0,0,0
0.429,-5.625,0,0,0,0,0
0.43,-5.625,0,0,0,0,0
0.431,-5.625,0,0,0,0,0
0.432,-5.3125,0,0,0,0,0
0.433,-5.625,0,0,0,0,0
0.434,-5.9375,0,0,0,0,0
0.435,-5.625,0,0,0,0,0
0.436,-5.3125,0,0,0,0,0
0.437,-5.625,0,0,0,0,0
0.438,-5.625,0,0,0,0,0
0.439,-5.625,0,0,0,0,0
0.44,-5.9375,0,0,0,0,0
0.441,-6.25,0,0,0,0,0
0.442,-6.25,0,0,0,0,0
0.443,-6.875,0,0,0,0,0
0.444,-6.5625,0,0,0,0,0
0.445,-6.875,0,0,0,0,0
0.446,-6.25,0,0,0,0,0
0.447,-6.25,0,0,0,0,0
0.448,-5.9375,0,0,0,0,0
0.449,-5.625,0,0,0,0,0
0.45,-5.625,0,0,0,0,0
0.451,-5.625,0,0,0,0,0
0.452,-5.625,0,0,0,0,0
0.453,-5.625,0,0,0,0,0
0.454,-5.625,0,0,0,0,0
0.455,-5.625,0,0,0,0,0
0.456,-5.3125,0,0,0,0,0
0.457,-5.625,0,0,0,0,0
0.458,-5.625,0,0,0,0,0
0.459,-5,0,0,0,0,0
0.46,-4.6875,0,0,0,0,0
0.461,-4.375,0,0,0,0,0
0.462,-4.6875,0,0,0,0,0
0.463,-4.375,0,0,0,0,0
0.464,-4.0625,0,0,0,0,0
0.465,-3.75,0,0,0,0,0
0.466,-4.0625,0,0,0,0,0
0.467,-3.75,0,0,0,0,0
0.468,-3.4375,0,0,0,0,0
0.469,-3.125,0,0,0,0,0
0.47,-3.125,0,0,0,0,0
0.471,-2.5,0,0,0,0,0
0.472,-2.8125,0,0,0,0,0
0.473,-2.5,0,0,0,0,0
0.474,-2.8125,0,0,0,0,0
0.475,-3.125,0,0,0,0,0
0.476,-2.8125,0,0,0,0,0
0.477,-2.5,0,0,0,0,0
0.478,-2.5,0,0,0,0,0
0.479,-1.875,0,0,0,0,0
0.48,-1.875,0,0,0,0,0
0.481,-1.25,0,0,0,0,0
0.482,-0.9375,0,0,0,0,0
0.483,0,0,0,0,0,0
0.484,-0.625,0,0,0,0,0
0.485,0,0,0,0,0,0
0.486,-0.625,0,0,0,0,0
0.487,-0.625,0,0,0,0,0
0.488,-0.3125,0,0,0,0,0
0.489,0,0,0,0,0,0
0.49,0,0,0,0,0,0
0.491,0,0,0,1,0,0
0.492,0.3125,0,0,0,0,0
0.493,0.625,0,0,0,0,0
0.494,0.9375,0,0,0,0,0
0.495,1.25,0,0,0,0,0
0.496,0.9375,0,0,0,0,0
0.497,0.625,0,0,0,0,0
0.498,0.625,0,0,0,0,0
0.499,0.625,0,0,0,0,0
0.5,0.3125,0,0,0,0,0
0.501,0,0,0,0,0,0
0.502,0,0,0,0,0,0
0.503,0.625,0,0,0,0,0
0.504,0.9375,0,0,0,0,0
0.505,1.25,0,0,0,0,0
0.506,0.9375,0,0,0,0,0
0.507,0.625,0,0,0,0,0
0.508,0.625,0,0,0,0,0
0.509,0.625,0,0,0,0,0
0.51,0.625,0,0,0,0,0
0.511,0,0,0,0,0,0
0.512,0.3125,0,0,0,0,0
0.513,0,0,0,0,0,0
0.514,0,0,0,0,0,0
0.515,0.625,0,0,0,0,0
0.516,0,0,0,0,0,0
0.517,0,0,0,0,0,0
0.518,-0.3125,0,0,0,0,0
0.519,0,0,0,0,0,0
0.52,0,0,0,0,0,0
0.521,0,0,0,0,0,0
0.522,0,0,0,0,0,0
0.523,0,0,0,0,0,0
0.524,0.3125,0,0,0,0,0
0.525,0.625,0,0,0,0,0
0.526,0.9375,0,0,0,0,0
0.527,1.25,0,0,0,0,0
0.528,1.5625,0,0,0,0,0
0.529,1.25,0,0,0,0,0
0.53,1.5625,0,0,0,0,0
0.531,1.25,0,0,0,0,0
0.532,1.25,0,0,0,0,0
0.533,1.25,0,0,0,0,0
0.534,1.25,0,0,0,0,0
0.535,1.25,0,0,0,0,0
0.536,1.25,0,0,0,0,0
0.537,1.25,0,0,0,0,0
0.538,1.25,0,0,0,0,0
0.539,1.875,0,0,0,0,0
0.54,1.25,0,0,0,0,0
0.541,1.25,0,0,0,0,0
0.542,0.9375,0,0,0,0,0
0.543,1.25,0,0,0,0,0
0.544,1.25,0,0,0,0,0
0.545,1.25,0,0,0,0,0
0.546,1.5625,0,0,0,0,0
0.547,1.25,0,0,0,0,0
0.548,0.9375,0,0,0,0,0
0.549,0.625,0,0,0,0,0
0.55,1.5625,0,0,0,0,0
0.551,1.25,0,0,0,0,0
0.552,1.25,0,0,0,0,0
0.553,1.25,0,0,0,0,0
0.554,1.5625,0,0,0,0,0
0.555,1.875,0,0,0,0,0
0.556,1.5625,0,0,0,0,0
0.557,1.25,0,0,0,0,0
0.558,1.25,0,0,0,0,0
0.559,1.25,0,0,0,0,0
0.56,0.625,0,0,0,0,0
0.561,1.25,0,0,0,0,0
0.562,1.5625,0,0,0,0,0
0.563,1.875,0,0,0,0,0
0.564,0.9375,0,0,0,0,0
0.565,1.25,0,0,0,0,0
0.566,1.25,0,0,0,0,0
0.567,1.25,0,0,0,0,0
0.568,0.3125,0,0,0,0,0
0.569,0.625,0,0,0,0,0
0.57,0.9375,0,0,0,0,0
0.571,0.625,0,0,0,0,0
0.572,0.625,0,0,0,0,0
0.573,0.625,0,0,0,0,0
0.574,0.9375,0,0,0,0,0
0.575,1.25,0,0,0,0,0
0.576,1.25,0,0,0,0,0
0.577,1.25,0,0,0,0,0
0.578,1.5625,0,0,0,0,0
0.579,1.25,0,0,0,0,0
0.58,1.25,0,0,0,0,0
0.581,1.25,0,0,0,0,0
0.582,0.9375,0,0,0,0,0
0.583,1.25,0,0,0,0,0
0.584,0.9375,0,0,0,0,0
0.585,1.25,0,0,0,0,0
0.586,0.9375,0,0,0,0,0
0.587,0.625,0,0,0,0,0
0.588,0.9375,0,0,0,0,0
0.589,1.25,0,0,0,0,0
0.59,0.9375,0,0,0,0,0
0.591,0.625,0,0,0,0,0
0.592,0.625,0,0,0,0,0
0.593,0.625,0,0,0,0,0
0.594,0,0,0,0,0,0
0.595,0,0,0,0,0,0
0.596,0.3125,0,0,0,0,0
0.597,0.625,0,0,0,0,0
0.598,0.625,0,0,0,0,0
0.599,0.625,0,0,0,0,0
0.6,0.625,0,0,0,0,0
0.601,0.625,0,0,0,0,0
0.602,0,0,0,0,0,0
0.603,0,0,0,0,0,0
0.604,-0.3125,0,0,0,0,0
0.605,-0.625,0,0,0,0,0
0.606,-0.3125,0,0,0,0,0
0.607,-0.625,0,0,0,0,0
0.608,-0.625,0,0,0,0,0
0.609,-0.625,0,0,0,0,0
0.61,-0.625,0,0,0,0,0
0.611,-0.625,0,0,0,0,0
0.612,-0.3125,0,0,0,0,0
0.613,0,0,0,0,0,0
0.614,0,0,0,0,0,0
0.615,-0.625,0,0,0,0,0
0.616,-0.9375,0,0,0,0,0
0.617,-1.25,0,0,0,0,0
0.618,-0.9375,0,0,0,0,0
0.619,-0.625,0,0,0,0,0
0.62,-0.9375,0,0,0,0,0
0.621,-1.25,0,0,0,0,0
0.622,-1.25,0,0,0,0,0
0.623,-1.25,0,0,0,0,0
0.624,-0.9375,0,0,0,0,0
0.625,-0.625,0,0,0,0,0
0.626,-0.9375,0,0,0,0,0
0.627,-1.25,0,0,0,0,0
0.628,-1.25,0,0,0,0,0
0.629,-1.875,0,0,0,0,0
0.63,-1.875,0,0,0,0,0
0.631,-1.875,0,0,0,0,0
0.632,-1.5625,0,0,0,0,0
0.633,-1.25,0,0,0,0,0
0.634,-1.5625,0,0,0,0,0
0.635,-1.875,0,0,0,0,0
0.636,-1.875,0,0,0,0,0
0.637,-1.875,0,0,0,0,0
0.638,-1.875,0,0,0,0,0
0.639,-1.875,0,0,0,0,0
0.64,-1.875,0,0,0,0,0
0.641,-1.875,0,0,0,0,0
0.642,-1.875,0,0,0,0,0
0.643,-1.25,0,0,0,0,0
0.644,-2.1875,0,0,0,0,0
0.645,-1.875,0,0,0,0,0
0.646,-1.875,0,0,0,0,0
0.647,-1.875,0,0,0,0,0
0.648,-1.5625,0,0,0,0,0
0.649,-1.25,0,0,0,0,0
0.65,-1.875,0,0,0,0,0
0.651,-1.875,0,0,0,0,0
0.652,-1.25,0,0,0,0,0
0.653,-1.875,0,0,0,0,0
0.654,-1.875,0,0,0,0,0
0.655,-2.5,0,0,0,1,0
0.656,-1.5625,0,0,0,0,0
0.657,-1.875,0,0,0,0,0
0.658,-1.5625,0,0,0,0,0
0.659,-1.875,0,0,0,0,0
0.66,-1.5625,0,0,0,0,0
0.661,-1.25,0,0,0,0,0
0.662,-1.25,0,0,0,0,0
0.663,-1.25,0,0,0,0,0
0.664,-1.5625,0,0,0,0,0
0.665,-1.25,0,0,0,0,0
0.666,-1.25,0,0,0,0,0
0.667,-1.25,0,0,0,0,0
0.668,-0.625,0,0,0,0,0
0.669,-0.625,0,0,0,0,0
0.67,0,0,0,0,0,0
0.671,-0.625,0,0,0,0,0
0.672,0.3125,0,0,0,0,0
0.673,0,0,0,0,0,0
0.674,0.3125,0,0,0,0,0
0.675,0.625,0,0,0,0,0
0.676,0.9375,0,0,0,0,0
0.677,1.25,0,0,0,0,0
0.678,0.9375,0,0,0,0,0
0.679,1.25,0,0,0,0,0
0.68,1.25,0,0,0,0,0
0.681,1.25,0,0,0,0,0
0.682,1.875,0,0,0,0,0
0.683,1.875,0,0,0,0,0
0.684,2.1875,0,0,0,0,0
0.685,2.5,0,0,0,0,0
0.686,2.8125,0,0,0,0,0
0.687,3.75,0,0,0,0,0
0.688,3.4375,0,0,0,0,0
0.689,3.125,0,0,0,0,0
0.69,2.8125,0,0,0,0,0
0.691,2.5,0,0,0,0,0
0.692,2.8125,0,0,0,0,0
0.693,2.5,0,0,0,0,0
0.694,2.8125,0,0,0,0,0
0.695,3.125,0,0,0,0,0
0.696,3.125,0,0,0,0,0
0.697,3.125,0,0,0,0,0
0.698,3.125,0,0,0,0,0
0.699,3.125,0,0,0,0,0
0.7,3.75,0,0,0,0,0
0.701,3.75,0,0,0,0,0
0.702,3.75,0,0,0,0,0
0.703,4.375,0,0,0,0,0
0.704,5,0,0,0,0,0
0.705,5,0,0,0,0,0
0.706,5.3125,0,0,0,0,0
0.707,5,0,0,0,0,0
0.708,4.375,0,0,0,0,0
0.709,5,0,0,0,0,0
0.71,4.0625,0,0,0,0,0
0.711,3.75,0,0,0,0,0
0.712,4.375,0,0,0,0,0
0.713,4.375,0,0,0,0,0
0.714,4.0625,0,0,0,0,0
0.715,3.75,0,0,0,0,0
0.716,4.0625,0,0,0,0,0
0.717,4.375,0,0,0,0,0
0.718,4.0625,0,0,0,0,0
0.719,3.75,0,0,0,0,0
0.72,4.0625,0,0,0,0,0
0.721,4.375,0,0,0,0,0
0.722,4.6875,0,0,0,0,0
0.723,4.375,0,0,0,0,0
0.724,5,0,0,0,0,0
0.725,4.375,0,0,0,0,0
0.726,3.75,0,0,0,0,0
0.727,3.75,0,0,0,0,0
0.728,4.375,0,0,0,0,0
0.729,4.375,0,0,0,0,0
0.73,4.375,0,0,0,0,0
0.731,4.375,0,0,0,0,0
0.732,4.6875,0,0,0,0,0
0.733,5,0,0,0,0,0
0.734,4.6875,0,0,0,0,1
0.735,4.375,0,0,0,0,0
0.736,4.6875,0,0,0,0,0
0.737,5,0,0,0,0,0
0.738,4.6875,0,0,0,0,0
0.739,4.375,0,0,0,0,0
0.74,4.0625,0,0,0,0,0
0.741,4.375,0,0,0,0,0
0.742,4.375,0,0,0,0,0
0.743,4.375,0,0,0,0,0
0.744,3.75,0,0,0,0,0
0.745,3.75,0,0,0,0,0
0.746,3.75,0,0,0,0,0
0.747,3.75,0,0,0,0,0
0.748,3.75,0,0,0,0,0
0.749,3.75,0,0,0,0,0
0.75,3.4375,0,0,0,0,0
0.751,3.125,0,0,0,0,0
0.752,3.4375,0,0,0,0,0
0.753,3.75,0,0,0,0,0
0.754,3.75,0,0,0,0,0
0.755,3.75,0,0,0,0,0
0.756,4.0625,0,0,0,0,0
0.757,3.75,0,0,0,0,0
0.758,3.75,0,0,0,0,0
0.759,3.75,0,0,0,0,0
0.76,3.75,0,0,0,0,0
0.761,3.75,0,0,0,0,0
0.762,3.75,0,0,0,0,0
0.763,4.375,0,0,0,0,0
0.764,3.4375,0,0,0,0,0
0.765,3.75,0,0,0,0,0
0.766,4.0625,0,0,0,0,0
0.767,3.75,0,0,0,0,0
0.768,3.75,0,0,0,0,0
0.769,3.75,0,0,0,0,0
0.77,3.75,0,0,0,0,0
0.771,3.75,0,0,0,0,0
0.772,3.75,0,0,0,0,0
0.773,3.75,0,0,0,0,0
0.774,3.75,0,0,0,0,0
0.775,3.75,0,0,0,0,0
0.776,4.375,0,0,0,0,0
0.777,3.75,0,0,0,0,0
0.778,4.0625,0,0,0,0,0
0.779,4.375,0,0,0,0,0
0.78,4.375,0,0,0,0,0
0.781,4.375,0,0,0,0,0
0.782,4.0625,0,0,0,0,0
0.783,3.75,0,0,0,0,0
0.784,3.75,0,0,0,0,0
0.785,3.125,0,0,0,0,0
0.786,2.8125,0,0,0,0,0
0.787,2.5,0,0,0,0,0
0.788,2.1875,0,0,0,0,0
0.789,2.5,0,0,0,0,0
0.79,2.8125,0,0,0,0,0
0.791,3.125,0,0,0,0,0
0.792,2.8125,0,0,0,0,0
0.793,2.5,0,0,0,0,0
0.794,2.5,0,0,0,0,0
0.795,2.5,0,0,0,0,0
0.796,2.1875,0,0,0,0,0
0.797,1.875,0,0,0,0,0
0.798,2.5,0,0,0,0,0
0.799,3.125,0,0,0,0,0
0.8,2.8125,0,0,0,0,0
0.801,2.5,0,0,0,0,0
0.802,2.5,0,0,0,0,0
0.803,2.5,0,0,0,0,0
0.804,2.5,0,0,0,0,0
0.805,2.5,0,0,0,0,0
0.806,2.5,0,0,0,0,0
0.807,1.875,0,0,0,0,0
0.808,2.1875,0,0,0,0,0
0.809,2.5,0,0,0,0,0
0.81,2.8125,0,0,0,0,0
0.811,3.125,0,0,0,0,0
0.812,2.8125,0,0,0,0,0
0.813,2.5,0,0,0,0,0
0.814,2.5,0,0,0,0,0
0.815,2.5,0,0,0,0,0
0.816,2.1875,0,0,0,0,0
0.817,1.875,0,0,0,0,0
0.818,1.875,0,0,0,0,0
0.819,2.5,0,0,0,0,0
0.82,2.1875,0,0,0,0,0
0.821,2.5,0,0,0,0,0
0.822,2.1875,0,0,0,0,0
0.823,2.5,0,0,0,0,0
0.824,2.1875,0,0,0,0,0
0.825,1.875,0,0,0,0,0
0.826,2.8125,0,0,0,0,0
0.827,3.125,0,0,0,0,0
0.828,3.125,0,0,0,0,0
0.829,3.125,0,0,0,0,0
0.83,3.4375,0,0,0,0,0
0.831,3.75,0,0,0,0,0
0.832,2.8125,0,0,0,0,0
0.833,2.5,0,0,0,0,0
0.834,3.4375,0,0,0,0,0
0.835,3.125,0,0,0,0,0
0.836,3.125,0,0,0,0,0
0.837,3.125,0,0,0,0,0
0.838,3.125,0,0,0,0,0
0.839,3.125,0,0,0,0,0
0.84,3.125,0,0,0,0,0
0.841,3.125,0,0,0,0,0
0.842,3.75,0,0,0,0,0
0.843,3.75,0,0,0,0,0
0.844,3.125,0,0,0,0,0
0.845,3.75,0,0,0,0,0
0.846,3.75,0,0,0,0,0
0.847,3.125,0,0,0,0,0
0.848,3.4375,0,0,0,0,0
0.849,3.125,0,0,0,0,0
0.85,3.125,0,0,0,0,0
0.851,3.125,0,0,0,0,0
0.852,3.125,0,0,0,0,0
0.853,3.125,0,0,0,0,0
0.854,2.8125,0,0,0,0,0
0.855,3.125,0,0,0,0,0
0.856,3.75,0,0,0,0,0
0.857,3.75,0,0,0,0,0
0.858,4.0625,0,0,0,0,0
0.859,3.75,0,0,0,0,0
0.86,4.0625,0,0,0,0,0
0.861,3.75,0,0,0,0,0
0.862,3.75,0,0,0,0,0
0.863,3.75,0,0,0,0,0
0.864,3.75,0,0,0,0,0
0.865,3.75,0,0,0,0,0
0.866,3.75,0,0,0,0,0
0.867,3.75,0,0,0,0,0
0.868,3.75,0,0,0,0,0
0.869,3.75,0,0,0,0,0
0.87,4.0625,0,0,0,0,0
0.871,4.375,0,0,0,0,0
0.872,4.0625,0,0,0,0,0
0.873,4.375,0,0,0,0,0
0.874,3.75,0,0,0,0,0
0.875,3.75,0,0,0,0,0
0.876,4.0625,0,0,0,0,0
0.877,3.75,0,0,0,0,0
0.878,3.4375,0,0,0,0,0
0.879,3.125,0,0,0,0,0
0.88,3.75,0,0,0,0,0
0.881,3.125,0,0,0,0,0
0.882,3.4375,0,0,0,0,0
0.883,3.75,0,0,0,0,0
0.884,3.75,0,0,0,0,0
0.885,3.75,0,0,0,0,0
0.886,3.4375,0,0,0,0,0
0.887,3.125,0,0,0,0,0
0.888,2.8125,0,0,0,0,0
0.889,1.875,0,0,0,0,0
0.89,2.1875,0,0,0,0,0
0.891,1.875,0,0,0,0,0
0.892,1.875,0,0,0,0,0
0.893,1.875,0,0,0,0,0
0.894,2.1875,0,0,0,0,0
0.895,2.5,0,0,0,0,0
0.896,2.1875,0,0,0,0,0
0.897,1.875,0,0,0,0,0
0.898,2.1875,0,0,0,0,0
0.899,2.5,0,0,0,0,0
0.9,2.8125,0,0,0,0,0
0.901,3.75,0,0,0,0,0
0.902,3.125,0,0,0,0,0
0.903,3.125,0,0,0,0,0
0.904,3.125,0,0,0,0,0
0.905,3.125,0,0,0,0,0
0.906,3.125,0,0,0,0,0
0.907,3.125,0,0,0,0,0
0.908,2.8125,0,0,0,0,0
0.909,2.5,0,0,0,0,0
0.91,3.125,0,0,0,0,0
0.911,2.5,0,0,0,0,0
0.912,2.8125,0,0,0,0,0
0.913,2.5,0,0,0,0,0
0.914,2.1875,0,0,0,0,0
0.915,1.875,0,0,0,0,0
0.916,1.875,0,0,0,0,0
0.917,1.875,0,0,0,0,0
0.918,2.1875,0,0,0,0,0
0.919,2.5,0,0,0,0,0
0.92,2.5,0,0,0,0,0
0.921,2.5,0,0,0,0,0
0.922,2.1875,0,0,0,0,0
0.923,1.875,0,0,0,0,0
0.924,2.1875,0,0,0,0,0
0.925,2.5,0,0,0,0,0
0.926,2.5,0,0,0,0,0
0.927,2.5,0,0,0,0,0
0.928,2.5,0,0,0,0,0
0.929,2.5,0,0,0,0,0
0.93,2.8125,0,0,0,0,0
0.931,3.125,0,0,0,0,0
0.932,2.8125,0,0,0,0,0
0.933,2.5,0,0,0,0,0
0.934,3.125,0,0,0,0,0
0.935,3.125,0,0,0,0,0
0.936,3.75,0,0,0,0,0
0.937,3.125,0,0,0,0,0
0.938,3.75,0,0,0,0,0
0.939,3.125,0,0,0,0,0
0.94,4.0625,0,0,0,0,0
0.941,4.375,0,0,0,0,0
0.942,4.375,0,0,0,0,0
0.943,4.375,0,0,0,0,0
0.944,5,0,0,0,0,0
0.945,5,0,0,0,0,0
0.946,4.6875,0,0,0,0,0
0.947,4.375,0,0,0,0,0
0.948,4.0625,0,0,0,0,0
0.949,4.375,0,0,0,0,0
0.95,3.75,0,0,0,0,0
0.951,4.375,0,0,0,0,0
0.952,4.375,0,0,0,0,0
0.953,4.375,0,0,0,0,0
0.954,4.375,0,0,0,0,0
0.955,4.375,0,0,0,0,0
0.956,5,0,0,0,0,0
0.957,4.375,0,0,0,0,0
0.958,4.6875,0,0,0,0,0
0.959,5,0,0,0,0,0
0.96,5,0,0,0,0,0
0.961,5,0,0,0,0,0
0.962,5,0,0,0,0,0
0.963,5.625,0,0,0,0,0
0.964,5,0,0,0,0,0
0.965,5,0,0,0,0,0
0.966,5,0,0,0,0,0
0.967,5,0,0,0,0,0
0.968,4.6875,0,0,0,0,0
0.969,4.375,0,0,0,0,0
0.97,4.375,0,0,0,0,0
0.971,4.375,0,0,0,0,0
0.972,4.0625,0,0,0,0,0
0.973,4.375,0,0,0,0,0
0.974,5,0,0,0,0,0
0.975,5,0,0,0,0,0
0.976,5.3125,0,0,0,0,0
0.977,5,0,0,0,0,0
0.978,5.3125,0,0,0,0,0
0.979,5.625,0,0,0,0,0
0.98,5.625,0,0,0,0,0
0.981,5.625,0,0,0,0,0
0.982,5.625,0,0,0,0,0
0.983,5.625,0,0,0,0,0
0.984,5.625,0,0,0,0,0
0.985,5.625,0,0,0,0,0
0.986,5.625,0,0,0,0,0
0.987,5.625,0,0,0,0,0
0.988,5.3125,0,0,0,0,0
0.989,5.625,0,0,0,0,0
0.99,5.625,0,0,0,0,0
0.991,6.25,0,0,0,0,0
0.992,6.5625,0,0,0,0,0
0.993,6.25,0,0,0,0,0
0.994,5.9375,0,0,0,0,0
0.995,5.625,0,0,0,0,0
0.996,5,0,0,0,0,0
0.997,5,0,0,0,0,0
0.998,5,0,0,0,0,0
0.999,5,0,0,0,0,0
1,5.3125,0,0,0,0,0
1.001,5,0,0,0,0,0
1.002,4.6875,0,0,0,0,0
1.003,4.375,0,0,0,0,0
1.004,4.6875,0,0,0,0,0
1.005,5,0,0,0,0,0
1.006,4.375,0,0,0,0,0
1.007,4.375,0,0,0,0,0
1.008,4.375,0,0,0,0,0
1.009,3.75,0,0,0,0,0
1.01,3.75,0,0,0,0,0
1.011,3.75,0,0,0,0,0
1.012,3.75,0,0,0,0,0
1.013,3.75,0,0,0,0,0
1.014,3.4375,0,0,0,0,0
1.015,3.125,0,0,0,0,0
1.016,2.8125,0,0,0,0,0
1.017,1.875,0,0,0,0,0
1.018,1.25,0,0,0,0,0
1.019,1.25,0,0,0,0,0
1.02,1.5625,0,0,0,0,0
1.021,1.875,0,0,0,0,0
1.022,1.5625,0,0,0,0,0
1.023,1.875,0,0,0,0,0
1.024,2.1875,0,0,0,0,0
1.025,2.5,0,0,0,0,0
1.026,2.5,0,0,0,0,0
1.027,2.5,0,0,0,0,0
1.028,2.1875,0,0,0,0,0
1.029,1.875,0,0,0,0,0
1.03,1.875,0,0,0,0,0
1.031,1.875,0,0,0,0,0
1.032,1.875,0,0,0,0,0
1.033,1.875,0,0,0,0,0
1.034,1.5625,0,0,0,0,0
1.035,1.25,0,0,0,0,0
1.036,1.5625,0,0,0,0,0
1.037,1.875,0,0,0,0,0
1.038,1.5625,0,0,0,0,0
1.039,1.25,0,0,0,0,0
1.04,1.5625,0,0,0,0,0
1.041,1.875,0,0,0,0,0
1.042,1.5625,0,0,0,0,0
1.043,1.25,0,0,0,0,0
1.044,1.5625,0,0,0,0,0
1.045,1.875,0,0,0,0,0
1.046,1.875,0,0,0,0,0
1.047,1.25,0,0,0,0,0
1.048,1.25,0,0,0,0,0
1.049,1.25,0,0,0,0,0
1.05,1.25,0,0,0,0,0
1.051,1.25,0,0,0,0,0
1.052,1.25,0,0,0,0,0
1.053,1.25,0,0,0,0,0
1.054,0.9375,0,0,0,0,0
1.055,0.625,0,0,0,0,0
1.056,0.9375,0,0,0,0,0
1.057,1.25,0,0,0,0,0
1.058,0.625,0,0,0,0,0
1.059,1.25,0,0,0,0,0
1.06,1.5625,0,0,0,0,0
1.061,1.25,0,0,0,0,0
1.062,2.1875,0,0,0,0,0
1.063,2.5,0,0,0,0,0
1.064,2.1875,0,0,0,0,0
1.065,1.875,0,0,0,0,0
1.066,1.875,0,0,0,0,0
1.067,1.875,0,0,0,0,0
1.068,1.5625,0,0,0,0,0
1.069,1.25,0,0,0,0,0
1.07,1.5625,0,0,0,0,0
1.071,1.875,0,0,0,0,0
1.072,0.9375,0,0,0,0,0
1.073,1.25,0,0,0,0,0
1.074,1.25,0,0,0,0,0
1.075,1.25,0,0,0,0,0
1.076,1.5625,0,0,0,0,0
1.077,1.25,0,0,0,0,0
1.078,1.25,0,0,0,0,0
1.079,0.625,0,0,0,0,0
1.08,0.625,0,0,0,0,0
1.081,0.625,0,0,0,0,0
1.082,0.9375,0,0,0,0,0
1.083,1.25,0,0,0,0,0
1.084,0.3125,0,0,0,0,0
1.085,0.625,0,0,0,0,0
1.086,0,0,0,0,0,0
1.087,0,0,0,0,0,0
1.088,-0.3125,0,0,0,0,0
1.089,0,0,0,0,0,0
1.09,0.625,0,0,0,0,0
1.091,1.25,0,0,0,0,0
1.092,1.25,0,0,0,0,0
1.093,1.25,0,0,0,0,0
1.094,0.9375,0,0,0,0,0
1.095,1.25,0,0,0,0,0
1.096,1.5625,0,0,0,0,0
1.097,1.875,0,0,0,0,0
1.098,1.875,0,0,0,0,0
1.099,1.875,0,0,0,0,0
1.1,1.875,0,0,0,0,0
1.101,1.875,0,0,0,0,0
1.102,2.1875,0,0,0,0,0
1.103,2.5,0,0,0,0,0
1.104,2.1875,1,0,0,0,0
1.105,2.5,0,0,0,0,0
1.106,1.5625,0,0,0,0,0
1.107,1.25,0,0,0,0,0
1.108,1.25,0,0,0,0,0
1.109,1.25,0,0,0,0,0
1.11,0.9375,0,0,0,0,0
1.111,1.25,0,0,0,0,0
1.112,1.25,0,0,0,0,0
1.113,0.625,0,0,0,0,0
1.114,0.625,0,0,0,0,0
1.115,0.625,0,0,0,0,0
1.116,-0.625,0,0,0,0,0
1.117,-0.625,0,0,0,0,0
1.118,0,0,0,0,0,0
1.119,0.625,0,0,0,0,0
1.12,1.25,0,0,0,0,0
1.121,1.875,0,0,0,0,0
1.122,2.5,0,0,0,0,0
1.123,3.75,0,0,0,0,0
1.124,4.6875,0,0,0,0,0
1.125,5,0,0,0,0,0
1.126,4.6875,0,0,0,0,0
1.127,5,0,0,0,0,0
1.128,6.25,0,0,0,0,0
1.129,7.5,0,0,0,0,0
1.13,8.4375,0,0,0,0,0
1.131,9.375,0,0,0,0,0
1.132,10.313,0,0,0,0,0
1.133,10.625,0,0,0,0,0
1.134,11.563,0,0,0,0,0
1.135,12.5,0,0,0,0,0
1.136,13.75,0,0,0,0,0
1.137,15.625,0,0,0,0,0
1.138,17.188,0,0,0,0,0
1.139,18.75,0,0,0,0,0
1.14,20.938,0,0,0,0,0
1.141,23.125,0,0,0,0,0
1.142,24.063,0,0,0,0,0
1.143,25,0,0,0,0,0
1.144,25.938,0,0,0,0,0
1.145,26.25,0,0,0,0,0
1.146,26.563,0,1,0,0,0
1.147,26.875,0,0,0,0,0
1.148,27.813,0,0,0,0,0
1.149,27.5,0,0,0,0,0
1.15,26.875,0,0,0,0,0
1.151,26.875,0,0,0,0,0
1.152,25.938,0,0,0,0,0
1.153,25,0,0,0,0,0
1.154,24.063,0,0,0,0,0
1.155,23.125,0,0,0,0,0
1.156,21.25,0,0,0,0,0
1.157,19.375,0,0,0,0,0
1.158,17.813,0,0,0,0,0
1.159,15.625,0,0,0,0,0
1.16,12.5,0,0,0,0,0
1.161,8.75,0,0,0,0,0
1.162,4.375,0,0,0,0,0
1.163,-0.625,0,0,0,0,0
1.164,-4.0625,0,0,0,0,0
1.165,-7.5,0,0,0,0,0
1.166,-10,0,0,0,0,0
1.167,-11.875,0,0,0,0,0
1.168,-12.5,0,0,0,0,0
1.169,-12.5,0,0,0,0,0
1.17,-13.125,0,0,0,0,0
1.171,-13.125,0,0,0,0,0
1.172,-12.5,0,0,0,0,0
1.173,-10.625,0,0,0,0,0
1.174,-9.0625,0,0,0,0,0
1.175,-8.125,0,0,0,0,0
1.176,-7.8125,0,0,0,0,0
1.177,-8.125,0,0,0,0,0
1.178,-7.8125,0,0,0,0,0
1.179,-6.875,0,0,0,0,0
1.18,-6.25,0,0,0,0,0
1.181,-5.625,0,0,0,0,0
1.182,-5.625,0,0,0,0,0
1.183,-5,0,0,0,0,0
1.184,-4.0625,0,0,0,0,0
1.185,-4.375,0,0,0,0,0
1.186,-3.75,0,0,0,0,0
1.187,-3.125,0,0,0,0,0
1.188,-2.1875,0,0,0,0,0
1.189,-1.875,0,0,0,0,0
1.19,-1.875,0,0,0,0,0
1.191,-1.875,0,0,0,0,0
1.192,-1.5625,0,0,0,0,0
1.193,-1.875,0,0,0,0,0
1.194,-1.875,0,0,0,0,0
1.195,-2.5,0,0,0,0,0
1.196,-2.5,0,0,0,0,0
1.197,-2.5,0,0,0,0,0
1.198,-2.8125,0,0,0,0,0
1.199,-3.125,0,0,0,0,0
1.2,-3.4375,0,0,0,0,0
1.201,-3.75,0,0,0,0,0
1.202,-4.0625,0,0,0,0,0
1.203,-4.375,0,0,0,0,0
1.204,-4.375,0,0,0,0,0
1.205,-4.375,0,0,0,0,0
1.206,-4.375,0,0,0,0,0
1.207,-4.375,0,0,0,0,0
1.208,-4.375,0,0,0,0,0
1.209,-4.375,0,0,0,0,0
1.21,-4.0625,0,0,0,0,0
1.211,-3.75,0,0,0,0,0
1.212,-3.75,0,0,0,0,0
1.213,-3.75,0,0,0,0,0
1.214,-4.0625,0,0,0,0,0
1.215,-3.75,0,0,0,0,0
1.216,-3.75,0,0,0,0,0
1.217,-3.75,0,0,0,0,0
1.218,-4.375,0,0,0,0,0
1.219,-4.375,0,0,0,0,0
1.22,-4.6875,0,0,0,0,0
1.221,-4.375,0,0,0,0,0
1.222,-4.375,0,0,0,0,0
1.223,-5,0,0,0,0,0
1.224,-4.6875,0,0,0,0,0
1.225,-4.375,0,0,0,0,0
1.226,-5,0,0,0,0,0
1.227,-5,0,0,0,0,0
1.228,-4.6875,0,0,0,0,0
1.229,-4.375,0,0,0,0,0
1.23,-4.6875,0,0,0,0,0
1.231,-5,0,0,0,0,0
1.232,-5.625,0,0,0,0,0
1.233,-5,0,0,0,0,0
1.234,-5,0,0,0,0,0
1.235,-4.375,0,0,0,0,0
1.236,-4.375,0,0,0,0,0
1.237,-4.375,0,0,0,0,0
1.238,-4.375,0,0,0,0,0
1.239,-4.375,0,0,0,0,0
1.24,-4.375,0,0,0,0,0
1.241,-4.375,0,0,0,0,0
1.242,-4.375,0,0,0,0,0
1.243,-4.375,0,0,0,0,0
1.244,-5,0,0,0,0,0
1.245,-5,0,0,0,0,0
1.246,-5,0,0,0,0,0
1.247,-5,0,0,0,0,0
1.248,-4.0625,0,0,0,0,0
1.249,-3.75,0,0,0,0,0
1.25,-4.0625,0,0,0,0,0
1.251,-4.375,0,0,0,0,0
1.252,-3.4375,0,0,0,0,0
1.253,-3.125,0,0,0,0,0
1.254,-3.125,0,0,0,0,0
1.255,-3.125,0,0,0,0,0
1.256,-2.8125,0,0,0,0,0
1.257,-3.125,0,0,0,0,0
1.258,-2.8125,0,0,0,0,0
1.259,-2.5,0,0,0,0,0
1.26,-1.875,0,0,0,0,0
1.261,-1.875,0,0,0,0,0
1.262,-1.5625,0,0,0,0,0
1.263,-1.875,0,0,0,0,0
1.264,-1.5625,0,0,0,0,0
1.265,-1.25,0,0,0,0,0
1.266,-1.25,0,0,0,0,0
1.267,-1.25,0,0,0,0,0
1.268,-0.625,0,0,0,0,0
1.269,-0.625,0,0,0,0,0
1.27,-0.625,0,0,0,0,0
1.271,-1.25,0,0,0,0,0
1.272,0,0,0,0,0,0
1.273,0,0,0,0,0,0
1.274,0.625,0,0,0,0,0
1.275,0.625,0,0,0,0,0
1.276,0.9375,0,0,0,0,0
1.277,0.625,0,0,0,0,0
1.278,0.625,0,0,0,0,0
1.279,0.625,0,0,0,0,0
1.28,0.625,0,0,0,0,0
1.281,0.625,0,0,0,0,0
1.282,0.9375,0,0,0,0,0
1.283,1.25,0,0,0,0,0
1.284,1.25,0,0,1,0,0
1.285,1.25,0,0,0,0,0
1.286,0.9375,0,0,0,0,0
1.287,0.625,0,0,0,0,0
1.288,0.625,0,0,0,0,0
1.289,0.625,0,0,0,0,0
1.29,0.9375,0,0,0,0,0
1.291,1.25,0,0,0,0,0
1.292,1.25,0,0,0,0,0
1.293,0.625,0,0,0,0,0
1.294,0.9375,0,0,0,0,0
1.295,1.25,0,0,0,0,0
1.296,1.25,0,0,0,0,0
1.297,1.25,0,0,0,0,0
1.298,1.25,0,0,0,0,0
1.299,1.25,0,0,0,0,0
1.3,0.9375,0,0,0,0,0
1.301,1.875,0,0,0,0,0
1.302,2.1875,0,0,0,0,0
1.303,1.875,0,0,0,0,0
1.304,1.875,0,0,0,0,0
1.305,1.875,0,0,0,0,0
1.306,2.8125,0,0,0,0,0
1.307,2.5,0,0,0,0,0
1.308,2.1875,0,0,0,0,0
1.309,1.875,0,0,0,0,0
1.31,1.875,0,0,0,0,0
1.311,1.875,0,0,0,0,0
1.312,2.1875,0,0,0,0,0
1.313,2.5,0,0,0,0,0
1.314,2.5,0,0,0,0,0
1.315,2.5,0,0,0,0,0
1.316,2.1875,0,0,0,0,0
1.317,2.5,0,0,0,0,0
1.318,2.5,0,0,0,0,0
1.319,2.5,0,0,0,0,0
1.32,2.1875,0,0,0,0,0
1.321,2.5,0,0,0,0,0
1.322,2.5,0,0,0,0,0
1.323,2.5,0,0,0,0,0
1.324,2.5,0,0,0,0,0
1.325,2.5,0,0,0,0,0
1.326,2.1875,0,0,0,0,0
1.327,1.875,0,0,0,0,0
1.328,2.1875,0,0,0,0,0
1.329,1.25,0,0,0,0,0
1.33,1.5625,0,0,0,0,0
1.331,1.875,0,0,0,0,0
1.332,2.1875,0,0,0,0,0
1.333,1.875,0,0,0,0,0
1.334,2.1875,0,0,0,0,0
1.335,2.5,0,0,0,0,0
1.336,1.875,0,0,0,0,0
1.337,1.875,0,0,0,0,0
1.338,1.5625,0,0,0,0,0
1.339,1.875,0,0,0,0,0
1.34,1.5625,0,0,0,0,0
1.341,1.875,0,0,0,0,0
1.342,1.25,0,0,0,0,0
1.343,0.625,0,0,0,0,0
1.344,0.9375,0,0,0,0,0
1.345,1.25,0,0,0,0,0
1.346,1.25,0,0,0,0,0
1.347,1.25,0,0,0,0,0
1.348,1.5625,0,0,0,0,0
1.349,1.25,0,0,0,0,0
1.35,1.5625,0,0,0,0,0
1.351,1.25,0,0,0,0,0
1.352,1.25,0,0,0,0,0
1.353,0.625,0,0,0,0,0
1.354,0.9375,0,0,0,0,0
1.355,0.625,0,0,0,0,0
1.356,0.9375,0,0,0,0,0
1.357,0.625,0,0,0,0,0
1.358,1.25,0,0,0,0,0
1.359,1.25,0,0,0,0,0
1.36,0.9375,0,0,0,0,0
1.361,1.25,0,0,0,0,0
1.362,1.25,0,0,0,0,0
1.363,1.25,0,0,0,0,0
1.364,1.25,0,0,0,0,0
1.365,1.25,0,0,0,0,0
1.366,0.9375,0,0,0,0,0
1.367,0.625,0,0,0,0,0
1.368,0.3125,0,0,0,0,0
1.369,0.625,0,0,0,0,0
1.37,0.3125,0,0,0,0,0
1.371,0,0,0,0,0,0
1.372,0.625,0,0,0,0,0
1.373,0,0,0,0,0,0
1.374,0,0,0,0,0,0
1.375,0,0,0,0,0,0
1.376,0,0,0,0,0,0
1.377,0,0,0,0,0,0
1.378,-0.3125,0,0,0,0,0
1.379,-0.625,0,0,0,0,0
1.38,-0.625,0,0,0,0,0
1.381,-0.625,0,0,0,0,0
1.382,-0.3125,0,0,0,0,0
1.383,-0.625,0,0,0,0,0
1.384,-0.9375,0,0,0,0,0
1.385,-1.25,0,0,0,0,0
1.386,-1.25,0,0,0,0,0
1.387,-1.25,0,0,0,0,0
1.388,-1.25,0,0,0,0,0
1.389,-1.25,0,0,0,0,0
1.39,-0.9375,0,0,0,0,0
1.391,-1.25,0,0,0,0,0
1.392,-1.5625,0,0,0,0,0
1.393,-1.875,0,0,0,0,0
1.394,-1.5625,0,0,0,0,0
1.395,-1.25,0,0,0,0,0
1.396,-1.5625,0,0,0,0,0
1.397,-1.25,0,0,0,0,0
1.398,-1.25,0,0,0,0,0
1.399,-1.25,0,0,0,0,0
1.4,-1.5625,0,0,0,0,0
1.401,-1.875,0,0,0,0,0
1.402,-1.875,0,0,0,0,0
1.403,-1.875,0,0,0,0,0
1.404,-2.5,0,0,0,0,0
1.405,-2.5,0,0,0,0,0
1.406,-2.5,0,0,0,0,0
1.407,-2.5,0,0,0,0,0
1.408,-2.5,0,0,0,0,0
1.409,-2.5,0,0,0,0,0
1.41,-2.5,0,0,0,0,0
1.411,-2.5,0,0,0,0,0
1.412,-2.8125,0,0,0,0,0
1.413,-3.125,0,0,0,0,0
1.414,-2.8125,0,0,0,0,0
1.415,-2.5,0,0,0,0,0
1.416,-2.5,0,0,0,0,0
1.417,-2.5,0,0,0,0,0
1.418,-3.125,0,0,0,0,0
1.419,-3.125,0,0,0,0,0
1.42,-2.8125,0,0,0,0,0
1.421,-2.5,0,0,0,0,0
1.422,-2.5,0,0,0,0,0
1.423,-2.5,0,0,0,0,0
1.424,-2.8125,0,0,0,0,0
1.425,-3.125,0,0,0,0,0
1.426,-3.125,0,0,0,0,0
1.427,-3.125,0,0,0,0,0
1.428,-3.4375,0,0,0,0,0
1.429,-3.75,0,0,0,0,0
1.43,-4.0625,0,0,0,0,0
1.431,-4.375,0,0,0,0,0
1.432,-4.0625,0,0,0,0,0
1.433,-5,0,0,0,0,0
1.434,-4.375,0,0,0,0,0
1.435,-4.375,0,0,0,0,0
1.436,-4.375,0,0,0,0,0
1.437,-4.375,0,0,0,0,0
1.438,-4.0625,0,0,0,0,0
1.439,-4.375,0,0,0,0,0
1.44,-4.375,0,0,0,0,0
1.441,-3.75,0,0,0,0,0
1.442,-4.375,0,0,0,1,0
1.443,-3.75,0,0,0,0,0
1.444,-3.75,0,0,0,0,0
1.445,-3.125,0,0,0,0,0
1.446,-4.0625,0,0,0,0,0
1.447,-3.75,0,0,0,0,0
1.448,-3.4375,0,0,0,0,0
1.449,-3.125,0,0,0,0,0
1.45,-2.8125,0,0,0,0,0
1.451,-2.5,0,0,0,0,0
1.452,-2.5,0,0,0,0,0
1.453,-2.5,0,0,0,0,0
1.454,-1.5625,0,0,0,0,0
1.455,-1.25,0,0,0,0,0
1.456,-1.875,0,0,0,0,0
1.457,-1.875,0,0,0,0,0
1.458,-2.1875,0,0,0,0,0
1.459,-1.875,0,0,0,0,0
1.46,-2.1875,0,0,0,0,0
1.461,-1.25,0,0,0,0,0
1.462,-2.1875,0,0,0,0,0
1.463,-1.875,0,0,0,0,0
1.464,-1.25,0,0,0,0,0
1.465,-1.25,0,0,0,0,0
1.466,-0.9375,0,0,0,0,0
1.467,-0.625,0,0,0,0,0
1.468,0,0,0,0,0,0
1.469,0,0,0,0,0,0
1.47,-0.3125,0,0,0,0,0
1.471,0,0,0,0,0,0
1.472,0,0,0,0,0,0
1.473,0,0,0,0,0,0
1.474,0.3125,0,0,0,0,0
1.475,0.625,0,0,0,0,0
1.476,1.25,0,0,0,0,0
1.477,1.25,0,0,0,0,0
1.478,1.5625,0,0,0,0,0
1.479,1.875,0,0,0,0,0
1.48,1.5625,0,0,0,0,0
1.481,1.875,0,0,0,0,0
1.482,1.875,0,0,0,0,0
1.483,1.875,0,0,0,0,0
1.484,1.5625,0,0,0,0,0
1.485,1.25,0,0,0,0,0
1.486,1.5625,0,0,0,0,0
1.487,1.875,0,0,0,0,0
1.488,1.875,0,0,0,0,0
1.489,2.5,0,0,0,0,0
1.49,2.5,0,0,0,0,0
1.491,2.5,0,0,0,0,0
1.492,3.125,0,0,0,0,0
1.493,3.125,0,0,0,0,0
1.494,2.1875,0,0,0,0,0
1.495,2.5,0,0,0,0,0
1.496,2.8125,0,0,0,0,0
1.497,2.5,0,0,0,0,0
1.498,3.4375,0,0,0,0,0
1.499,3.125,0,0,0,0,0
1.5,2.8125,0,0,0,0,0
1.501,3.125,0,0,0,0,0
1.502,3.125,0,0,0,0,0
1.503,3.125,0,0,0,0,0
1.504,3.125,0,0,0,0,0
1.505,3.125,0,0,0,0,0
1.506,3.4375,0,0,0,0,0
1.507,3.75,0,0,0,0,0
1.508,3.75,0,0,0,0,0
1.509,3.75,0,0,0,0,0
1.51,4.0625,0,0,0,0,0
1.511,4.375,0,0,0,0,0
1.512,3.75,0,0,0,0,0
1.513,4.375,0,0,0,0,0
1.514,3.75,0,0,0,0,0
1.515,3.75,0,0,0,0,0
1.516,4.0625,0,0,0,0,0
1.517,3.75,0,0,0,0,0
1.518,3.125,0,0,0,0,0
1.519,3.125,0,0,0,0,0
1.52,3.125,0,0,0,0,0
1.521,3.125,0,0,0,0,0
1.522,3.4375,0,0,0,0,0
1.523,3.75,0,0,0,0,0
1.524,3.4375,0,0,0,0,0
1.525,3.125,0,0,0,0,0
1.526,2.8125,0,0,0,0,0
1.527,2.5,0,0,0,0,0
1.528,2.8125,0,0,0,0,0
1.529,2.5,0,0,0,0,0
1.53,2.8125,0,0,0,0,0
1.531,3.125,0,0,0,0,0
1.532,3.125,0,0,0,0,0
1.533,2.5,0,0,0,0,0
1.534,2.5,0,0,0,0,0
1.535,2.5,0,0,0,0,0
1.536,2.1875,0,0,0,0,0
1.537,1.875,0,0,0,0,0
1.538,1.875,0,0,0,0,0
1.539,1.875,0,0,0,0,0
1.54,1.875,0,0,0,0,0
1.541,1.875,0,0,0,0,0
1.542,1.5625,0,0,0,0,0
1.543,1.25,0,0,0,0,1
1.544,1.5625,0,0,0,0,0
1.545,1.875,0,0,0,0,0
1.546,1.25,0,0,0,0,0
1.547,1.25,0,0,0,0,0
1.548,1.25,0,0,0,0,0
1.549,1.25,0,0,0,0,0
1.55,1.25,0,0,0,0,0
1.551,1.25,0,0,0,0,0
1.552,1.875,0,0,0,0,0
1.553,1.25,0,0,0,0,0
1.554,1.875,0,0,0,0,0
1.555,1.875,0,0,0,0,0
1.556,1.5625,0,0,0,0,0
1.557,1.875,0,0,0,0,0
1.558,1.5625,0,0,0,0,0
1.559,1.25,0,0,0,0,0
1.56,1.25,0,0,0,0,0
1.561,1.25,0,0,0,0,0
1.562,1.5625,0,0,0,0,0
1.563,1.875,0,0,0,0,0
1.564,1.875,0,0,0,0,0
1.565,2.5,0,0,0,0,0
1.566,2.1875,0,0,0,0,0
1.567,2.5,0,0,0,0,0
1.568,2.5,0,0,0,0,0
1.569,2.5,0,0,0,0,0
1.57,2.5,0,0,0,0,0
1.571,2.5,0,0,0,0,0
1.572,2.8125,0,0,0,0,0
1.573,3.125,0,0,0,0,0
1.574,2.5,0,0,0,0,0
1.575,2.5,0,0,0,0,0
1.576,2.5,0,0,0,0,0
1.577,2.5,0,0,0,0,0
1.578,2.5,0,0,0,0,0
1.579,1.875,0,0,0,0,0
1.58,1.875,0,0,0,0,0
1.581,1.875,0,0,0,0,0
1.582,1.875,0,0,0,0,0
1.583,1.875,0,0,0,0,0
1.584,1.875,0,0,0,0,0
1.585,1.875,0,0,0,0,0
1.586,1.875,0,0,0,0,0
1.587,1.875,0,0,0,0,0
1.588,1.875,0,0,0,0,0
1.589,1.875,0,0,0,0,0
1.59,1.875,0,0,0,0,0
1.591,1.875,0,0,0,0,0
1.592,1.875,0,0,0,0,0
1.593,1.875,0,0,0,0,0
1.594,1.875,0,0,0,0,0
1.595,2.5,0,0,0,0,0
1.596,2.5,0,0,0,0,0
1.597,2.5,0,0,0,0,0
1.598,2.5,0,0,0,0,0
1.599,2.5,0,0,0,0,0
1.6,2.5,0,0,0,0,0
1.601,2.5,0,0,0,0,0
1.602,2.8125,0,0,0,0,0
1.603,3.125,0,0,0,0,0
1.604,3.125,0,0,0,0,0
1.605,3.125,0,0,0,0,0
1.606,3.125,0,0,0,0,0
1.607,2.5,0,0,0,0,0
1.608,2.1875,0,0,0,0,0
1.609,1.875,0,0,0,0,0
1.61,2.5,0,0,0,0,0
1.611,1.875,0,0,0,0,0
1.612,2.1875,0,0,0,0,0
1.613,2.5,0,0,0,0,0
1.614,1.875,0,0,0,0,0
1.615,1.875,0,0,0,0,0
1.616,1.875,0,0,0,0,0
1.617,1.875,0,0,0,0,0
1.618,1.875,0,0,0,0,0
1.619,1.875,0,0,0,0,0
1.62,2.5,0,0,0,0,0
1.621,2.5,0,0,0,0,0
1.622,2.5,0,0,0,0,0
1.623,3.125,0,0,0,0,0
1.624,2.8125,0,0,0,0,0
1.625,3.125,0,0,0,0,0
1.626,3.125,0,0,0,0,0
1.627,3.125,0,0,0,0,0
1.628,3.125,0,0,0,0,0
1.629,3.125,0,0,0,0,0
1.63,3.125,0,0,0,0,0
1.631,3.75,0,0,0,0,0
1.632,3.4375,0,0,0,0,0
1.633,2.5,0,0,0,0,0
1.634,2.8125,0,0,0,0,0
1.635,2.5,0,0,0,0,0
1.636,1.5625,0,0,0,0,0
1.637,1.875,0,0,0,0,0
1.638,1.5625,0,0,0,0,0
1.639,1.25,0,0,0,0,0
1.64,1.25,0,0,0,0,0
1.641,1.25,0,0,0,0,0
1.642,1.875,0,0,0,0,0
1.643,1.875,0,0,0,0,0
1.644,1.5625,0,0,0,0,0
1.645,1.875,0,0,0,0,0
1.646,1.875,0,0,0,0,0
1.647,1.875,0,0,0,0,0
1.648,1.25,0,0,0,0,0
1.649,1.875,0,0,0,0,0
1.65,1.875,0,0,0,0,0
1.651,1.875,0,0,0,0,0
1.652,1.5625,0,0,0,0,0
1.653,1.25,0,0,0,0,0
1.654,1.5625,0,0,0,0,0
1.655,1.875,0,0,0,0,0
1.656,1.875,0,0,0,0,0
1.657,1.875,0,0,0,0,0
1.658,1.875,0,0,0,0,0
1.659,1.875,0,0,0,0,0
1.66,2.1875,0,0,0,0,0
1.661,1.875,0,0,0,0,0
1.662,1.5625,0,0,0,0,0
1.663,1.25,0,0,0,0,0
1.664,1.875,0,0,0,0,0
1.665,1.875,0,0,0,0,0
1.666,1.5625,0,0,0,0,0
1.667,1.875,0,0,0,0,0
1.668,1.5625,0,0,0,0,0
1.669,1.875,0,0,0,0,0
1.67,1.5625,0,0,0,0,0
1.671,1.875,0,0,0,0,0
1.672,1.875,0,0,0,0,0
1.673,1.875,0,0,0,0,0
1.674,2.1875,0,0,0,0,0
1.675,2.5,0,0,0,0,0
1.676,2.5,0,0,0,0,0
1.677,2.5,0,0,0,0,0
1.678,1.5625,0,0,0,0,0
1.679,1.875,0,0,0,0,0
1.68,1.875,0,0,0,0,0
1.681,1.875,0,0,0,0,0
1.682,1.875,0,0,0,0,0
1.683,1.875,0,0,0,0,0
1.684,2.1875,0,0,0,0,0
1.685,2.5,0,0,0,0,0
1.686,2.1875,0,0,0,0,0
1.687,1.875,0,0,0,0,0
1.688,1.875,0,0,0,0,0
1.689,1.875,0,0,0,0,0
1.69,2.5,0,0,0,0,0
1.691,1.875,0,0,0,0,0
1.692,2.1875,0,0,0,0,0
1.693,2.5,0,0,0,0,0
1.694,2.1875,0,0,0,0,0
1.695,1.875,0,0,0,0,0
1.696,1.875,0,0,0,0,0
1.697,1.875,0,0,0,0,0
1.698,1.5625,0,0,0,0,0
1.699,1.875,0,0,0,0,0
1.7,0.9375,0,0,0,0,0
1.701,1.25,0,0,0,0,0
1.702,1.875,0,0,0,0,0
1.703,2.5,0,0,0,0,0
1.704,1.875,0,0,0,0,0
1.705,1.875,0,0,0,0,0
1.706,2.1875,0,0,0,0,0
1.707,1.875,0,0,0,0,0
1.708,1.25,0,0,0,0,0
1.709,1.25,0,0,0,0,0
1.71,1.5625,0,0,0,0,0
1.711,1.875,0,0,0,0,0
1.712,1.5625,0,0,0,0,0
1.713,1.25,0,0,0,0,0
1.714,1.25,0,0,0,0,0
1.715,1.25,0,0,0,0,0
1.716,1.25,0,0,0,0,0
1.717,1.25,0,0,0,0,0
1.718,1.5625,0,0,0,0,0
1.719,1.875,0,0,0,0,0
1.72,1.5625,0,0,0,0,0
1.721,1.25,0,0,0,0,0
1.722,1.25,0,0,0,0,0
1.723,1.25,0,0,0,0,0
1.724,1.25,0,0,0,0,0
1.725,1.25,0,0,0,0,0
1.726,1.25,0,0,0,0,0
1.727,1.25,0,0,0,0,0
1.728,0.9375,0,0,0,0,0
1.729,1.25,0,0,0,0,0
1.73,1.5625,0,0,0,0,0
1.731,2.5,0,0,0,0,0
1.732,1.875,0,0,0,0,0
1.733,2.5,0,0,0,0,0
1.734,1.875,0,0,0,0,0
1.735,2.5,0,0,0,0,0
1.736,2.5,0,0,0,0,0
1.737,2.5,0,0,0,0,0
1.738,2.1875,0,0,0,0,0
1.739,2.5,0,0,0,0,0
1.74,2.8125,0,0,0,0,0
1.741,3.125,0,0,0,0,0
1.742,3.125,0,0,0,0,0
1.743,3.125,0,0,0,0,0
1.744,3.75,0,0,0,0,0
1.745,3.125,0,0,0,0,0
1.746,3.75,0,0,0,0,0
1.747,3.75,0,0,0,0,0
1.748,4.0625,0,0,0,0,0
1.749,4.375,0,0,0,0,0
1.75,4.375,0,0,0,0,0
1.751,5,0,0,0,0,0
1.752,4.6875,0,0,0,0,0
1.753,5,0,0,0,0,0
1.754,4.6875,0,0,0,0,0
1.755,4.375,0,0,0,0,0
1.756,4.0625,0,0,0,0,0
1.757,3.75,0,0,0,0,0
1.758,4.6875,0,0,0,0,0
1.759,4.375,0,0,0,0,0
1.76,4.375,0,0,0,0,0
1.761,4.375,0,0,0,0,0
1.762,4.375,0,0,0,0,0
1.763,4.375,0,0,0,0,0
1.764,4.375,0,0,0,0,0
1.765,4.375,0,0,0,0,0
1.766,4.0625,0,0,0,0,0
1.767,3.75,0,0,0,0,0
1.768,4.6875,0,0,0,0,0
1.769,5,0,0,0,0,0
1.77,4.375,0,0,0,0,0
1.771,5,0,0,0,0,0
1.772,5,0,0,0,0,0
1.773,5,0,0,0,0,0
1.774,4.6875,0,0,0,0,0
1.775,4.375,0,0,0,0,0
1.776,4.375,0,0,0,0,0
1.777,4.375,0,0,0,0,0
1.778,4.375,0,0,0,0,0
1.779,4.375,0,0,0,0,0
1.78,4.6875,0,0,0,0,0
1.781,5,0,0,0,0,0
1.782,5.625,0,0,0,0,0
1.783,5.625,0,0,0,0,0
1.784,5.3125,0,0,0,0,0
1.785,5,0,0,0,0,0
1.786,5.9375,0,0,0,0,0
1.787,6.25,0,0,0,0,0
1.788,4.6875,0,0,0,0,0
1.789,3.75,0,0,0,0,0
1.79,3.75,0,0,0,0,0
1.791,3.125,0,0,0,0,0
1.792,3.125,0,0,0,0,0
1.793,3.125,0,0,0,0,0
1.794,3.4375,0,0,0,0,0
1.795,3.75,0,0,0,0,0
1.796,3.4375,0,0,0,0,0
1.797,3.75,0,0,0,0,0
1.798,3.4375,0,0,0,0,0
1.799,3.125,0,0,0,0,0
1.8,3.125,0,0,0,0,0
1.801,2.5,0,0,0,0,0
1.802,2.5,0,0,0,0,0
1.803,2.5,0,0,0,0,0
1.804,1.875,0,0,0,0,0
1.805,1.875,0,0,0,0,0
1.806,1.875,0,0,0,0,0
1.807,1.875,0,0,0,0,0
1.808,1.875,0,0,0,0,0
1.809,1.875,0,0,0,0,0
1.81,1.875,0,0,0,0,0
1.811,1.875,0,0,0,0,0
1.812,0.9375,0,0,0,0,0
1.813,0.625,0,0,0,0,0
1.814,0.9375,0,0,0,0,0
1.815,0.625,0,0,0,0,0
1.816,0.9375,0,0,0,0,0
1.817,0.625,0,0,0,0,0
1.818,0.625,0,0,0,0,0
1.819,0.625,0,0,0,0,0
1.82,0.625,0,0,0,0,0
1.821,0.625,0,0,0,0,0
1.822,0.3125,0,0,0,0,0
1.823,0,0,0,0,0,0
1.824,0.3125,0,0,0,0,0
1.825,0.625,0,0,0,0,0
1.826,0.625,0,0,0,0,0
1.827,0.625,0,0,0,0,0
1.828,0.625,0,0,0,0,0
1.829,0.625,0,0,0,0,0
1.83,0.3125,0,0,0,0,0
1.831,0,0,0,0,0,0
1.832,0.3125,0,0,0,0,0
1.833,0.625,0,0,0,0,0
1.834,0.625,0,0,0,0,0
1.835,0.625,0,0,0,0,0
1.836,0.9375,0,0,0,0,0
1.837,1.25,0,0,0,0,0
1.838,0.9375,0,0,0,0,0
1.839,0.625,0,0,0,0,0
1.84,0.625,0,0,0,0,0
1.841,0.625,0,0,0,0,0
1.842,0.3125,0,0,0,0,0
1.843,0.625,0,0,0,0,0
1.844,0.625,0,0,0,0,0
1.845,0.625,0,0,0,0,0
1.846,0.625,0,0,0,0,0
1.847,0.625,0,0,0,0,0
1.848,0.625,0,0,0,0,0
1.849,0.625,0,0,0,0,0
1.85,0.9375,0,0,0,0,0
1.851,1.25,0,0,0,0,0
1.852,1.25,0,0,0,0,0
1.853,0.625,0,0,0,0,0
1.854,0.9375,0,0,0,0,0
1.855,0.625,0,0,0,0,0
1.856,-0.3125,0,0,0,0,0
1.857,0,0,0,0,0,0
1.858,0,0,0,0,0,0
1.859,0,0,0,0,0,0
1.86,0,0,0,0,0,0
1.861,0,0,0,0,0,0
1.862,0.3125,0,0,0,0,0
1.863,0.625,0,0,0,0,0
1.864,0.3125,0,0,0,0,0
1.865,0,0,0,0,0,0
1.866,0.3125,0,0,0,0,0
1.867,0,0,0,0,0,0
1.868,0.625,0,0,0,0,0
1.869,0.625,0,0,0,0,0
1.87,0.625,0,0,0,0,0
1.871,0.625,0,0,0,0,0
1.872,0,0,0,0,0,0
1.873,0.625,0,0,0,0,0
1.874,0.625,0,0,0,0,0
1.875,0.625,0,0,0,0,0
1.876,0.625,0,0,0,0,0
1.877,0.625,0,0,0,0,0
1.878,0.9375,0,0,0,0,0
1.879,0.625,0,0,0,0,0
1.88,0.625,0,0,0,0,0
1.881,-0.625,0,0,0,0,0
1.882,-0.9375,0,0,0,0,0
1.883,-1.25,0,0,0,0,0
1.884,-0.3125,0,0,0,0,0
1.885,0,0,0,0,0,0
1.886,0,0,0,0,0,0
1.887,0,0,0,0,0,0
1.888,0,0,0,0,0,0
1.889,0,0,0,0,0,0
1.89,0.9375,0,0,0,0,0
1.891,1.25,0,0,0,0,0
1.892,1.25,1,0,0,0,0
1.893,1.25,0,0,0,0,0
1.894,1.25,0,0,0,0,0
1.895,1.25,0,0,0,0,0
1.896,1.25,0,0,0,0,0
1.897,1.25,0,0,0,0,0
1.898,1.5625,0,0,0,0,0
1.899,1.25,0,0,0,0,0
1.9,0.9375,0,0,0,0,0
1.901,0.625,0,0,0,0,0
1.902,1.25,0,0,0,0,0
1.903,1.25,0,0,0,0,0
1.904,1.5625,0,0,0,0,0
1.905,1.25,0,0,0,0,0
1.906,0.9375,0,0,0,0,0
1.907,0.625,0,0,0,0,0
1.908,-0.3125,0,0,0,0,0
1.909,-0.625,0,0,0,0,0
1.91,0,0,0,0,0,0
1.911,0,0,0,0,0,0
1.912,0.3125,0,0,0,0,0
1.913,0,0,0,0,0,0
1.914,-0.625,0,0,0,0,0
1.915,-0.625,0,0,0,0,0
1.916,-0.3125,0,0,0,0,0
1.917,0,0,0,0,0,0
1.918,1.5625,0,0,0,0,0
1.919,3.125,0,0,0,0,0
1.92,4.0625,0,0,0,0,0
1.921,4.375,0,0,0,0,0
1.922,5,0,0,0,0,0
1.923,5.625,0,0,0,0,0
1.924,6.25,0,0,0,0,0
1.925,7.5,0,0,0,0,0
1.926,9.0625,0,0,0,0,0
1.927,10,0,0,0,0,0
1.928,9.6875,0,0,0,0,0
1.929,10.625,0,0,0,0,0
1.93,11.875,0,0,0,0,0
1.931,12.5,0,0,0,0,0
1.932,13.438,0,0,0,0,0
1.933,14.375,0,0,0,0,0
1.934,15.313,0,0,0,0,0
1.935,16.875,0,0,0,0,0
1.936,19.063,0,0,0,0,0
1.937,21.25,0,0,0,0,0
1.938,23.125,0,0,0,0,0
1.939,24.375,0,0,0,0,0
1.94,25.313,0,0,0,0,0
1.941,26.25,0,0,0,0,0
1.942,27.188,0,0,0,0,0
1.943,27.5,0,0,0,0,0
1.944,25.625,0,0,0,0,0
1.945,24.375,0,1,0,0,0
1.946,24.375,0,0,0,0,0
1.947,23.75,0,0,0,0,0
1.948,23.125,0,0,0,0,0
1.949,21.875,0,0,0,0,0
1.95,20.938,0,0,0,0,0
1.951,20,0,0,0,0,0
1.952,18.75,0,0,0,0,0
1.953,17.5,0,0,0,0,0
1.954,16.25,0,0,0,0,0
1.955,14.375,0,0,0,0,0
1.956,11.25,0,0,0,0,0
1.957,6.25,0,0,0,0,0
1.958,0.625,0,0,0,0,0
1.959,-3.125,0,0,0,0,0
1.96,-6.25,0,0,0,0,0
1.961,-8.75,0,0,0,0,0
1.962,-11.25,0,0,0,0,0
1.963,-12.5,0,0,0,0,0
1.964,-13.75,0,0,0,0,0
1.965,-14.375,0,0,0,0,0
1.966,-14.375,0,0,0,0,0
1.967,-14.375,0,0,0,0,0
1.968,-12.5,0,0,0,0,0
1.969,-10.625,0,0,0,0,0
1.97,-8.4375,0,0,0,0,0
1.971,-6.875,0,0,0,0,0
1.972,-6.875,0,0,0,0,0
1.973,-6.875,0,0,0,0,0
1.974,-6.25,0,0,0,0,0
1.975,-5.625,0,0,0,0,0
1.976,-5,0,0,0,0,0
1.977,-5,0,0,0,0,0
1.978,-4.375,0,0,0,0,0
1.979,-3.125,0,0,0,0,0
1.98,-3.125,0,0,0,0,0
1.981,-2.5,0,0,0,0,0
1.982,-2.5,0,0,0,0,0
1.983,-2.5,0,0,0,0,0
1.984,-2.8125,0,0,0,0,0
1.985,-3.125,0,0,0,0,0
1.986,-3.125,0,0,0,0,0
1.987,-3.125,0,0,0,0,0
1.988,-3.4375,0,0,0,0,0
1.989,-3.125,0,0,0,0,0
1.99,-3.75,0,0,0,0,0
1.991,-3.75,0,0,0,0,0
1.992,-3.4375,0,0,0,0,0
1.993,-3.125,0,0,0,0,0
1.994,-3.125,0,0,0,0,0
1.995,-3.125,0,0,0,0,0
1.996,-3.125,0,0,0,0,0
1.997,-3.125,0,0,0,0,0
1.998,-2.8125,0,0,0,0,0
1.999,-2.5,0,0,0,0,0
2,-2.5,0,0,0,0,0
2.001,-2.5,0,0,0,0,0
2.002,-2.8125,0,0,0,0,0
2.003,-3.125,0,0,0,0,0
2.004,-2.8125,0,0,0,0,0
2.005,-2.5,0,0,0,0,0
2.006,-2.8125,0,0,0,0,0
2.007,-3.125,0,0,0,0,0
2.008,-2.8125,0,0,0,0,0
2.009,-3.125,0,0,0,0,0
2.01,-3.125,0,0,0,0,0
2.011,-3.125,0,0,0,0,0
2.012,-3.4375,0,0,0,0,0
2.013,-4.375,0,0,0,0,0
2.014,-4.375,0,0,0,0,0
2.015,-4.375,0,0,0,0,0
2.016,-4.0625,0,0,0,0,0
2.017,-4.375,0,0,0,0,0
2.018,-5,0,0,0,0,0
2.019,-5,0,0,0,0,0
2.02,-5,0,0,0,0,0
2.021,-5.625,0,0,0,0,0
2.022,-5.625,0,0,0,0,0
2.023,-5.625,0,0,0,0,0
2.024,-5.625,0,0,0,0,0
2.025,-5.625,0,0,0,0,0
2.026,-5.625,0,0,0,0,0
2.027,-6.25,0,0,0,0,0
2.028,-5.625,0,0,0,0,0
2.029,-5.625,0,0,0,0,0
2.03,-5.3125,0,0,0,0,0
2.031,-5.625,0,0,0,0,0
2.032,-5.625,0,0,0,0,0
2.033,-5.625,0,0,0,0,0
2.034,-5.625,0,0,0,0,0
2.035,-5.625,0,0,0,0,0
2.036,-5.3125,0,0,0,0,0
2.037,-5,0,0,0,0,0
2.038,-5,0,0,0,0,0
2.039,-5,0,0,0,0,0
2.04,-4.0625,0,0,0,0,0
2.041,-3.75,0,0,0,0,0
2.042,-3.75,0,0,0,0,0
2.043,-3.125,0,0,0,0,0
2.044,-3.4375,0,0,0,0,0
2.045,-3.75,0,0,0,0,0
2.046,-4.0625,0,0,0,0,0
2.047,-3.75,0,0,0,0,0
2.048,-3.75,0,0,0,0,0
2.049,-3.75,0,0,0,0,0
2.05,-3.75,0,0,0,0,0
2.051,-3.125,0,0,0,0,0
2.052,-2.5,0,0,0,0,0
2.053,-1.875,0,0,0,0,0
2.054,-2.5,0,0,0,0,0
2.055,-2.5,0,0,0,0,0
2.056,-2.5,0,0,0,0,0
2.057,-1.875,0,0,0,0,0
2.058,-1.5625,0,0,0,0,0
2.059,-1.25,0,0,0,0,0
2.06,-1.25,0,0,0,0,0
2.061,-1.25,0,0,0,0,0
2.062,-1.25,0,0,0,0,0
2.063,-0.625,0,0,0,0,0
2.064,-0.625,0,0,0,0,0
2.065,0,0,0,0,0,0
2.066,0.3125,0,0,0,0,0
2.067,1.25,0,0,0,0,0
2.068,0.625,0,0,0,0,0
2.069,1.25,0,0,0,0,0
2.07,0.9375,0,0,0,0,0
2.071,1.25,0,0,0,0,0
2.072,0.9375,0,0,0,0,0
2.073,0.625,0,0,0,0,0
2.074,0.625,0,0,0,0,0
2.075,0.625,0,0,0,0,0
2.076,0.625,0,0,0,0,0
2.077,0.625,0,0,1,0,0
2.078,0.625,0,0,0,0,0
2.079,0.625,0,0,0,0,0
2.08,0.625,0,0,0,0,0
2.081,0.625,0,0,0,0,0
2.082,0.625,0,0,0,0,0
2.083,0.625,0,0,0,0,0
2.084,0.625,0,0,0,0,0
2.085,0.625,0,0,0,0,0
2.086,0.625,0,0,0,0,0
2.087,1.25,0,0,0,0,0
2.088,1.5625,0,0,0,0,0
2.089,1.875,0,0,0,0,0
2.09,1.875,0,0,0,0,0
2.091,1.875,0,0,0,0,0
2.092,2.1875,0,0,0,0,0
2.093,2.5,0,0,0,0,0
2.094,2.5,0,0,0,0,0
2.095,1.875,0,0,0,0,0
2.096,2.1875,0,0,0,0,0
2.097,1.875,0,0,0,0,0
2.098,1.5625,0,0,0,0,0
2.099,1.875,0,0,0,0,0
2.1,1.875,0,0,0,0,0
2.101,2.5,0,0,0,0,0
2.102,2.1875,0,0,0,0,0
2.103,2.5,0,0,0,0,0
2.104,2.1875,0,0,0,0,0
2.105,1.875,0,0,0,0,0
2.106,1.875,0,0,0,0,0
2.107,1.875,0,0,0,0,0
2.108,1.5625,0,0,0,0,0
2.109,1.25,0,0,0,0,0
2.11,1.5625,0,0,0,0,0
2.111,1.875,0,0,0,0,0
2.112,2.5,0,0,0,0,0
2.113,2.5,0,0,0,0,0
2.114,2.5,0,0,0,0,0
2.115,1.875,0,0,0,0,0
2.116,1.875,0,0,0,0,0
2.117,1.875,0,0,0,0,0
2.118,1.875,0,0,0,0,0
2.119,1.875,0,0,0,0,0
2.12,1.875,0,0,0,0,0
2.121,1.875,0,0,0,0,0
2.122,1.5625,0,0,0,0,0
2.123,1.875,0,0,0,0,0
2.124,1.5625,0,0,0,0,0
2.125,1.875,0,0,0,0,0
2.126,1.5625,0,0,0,0,0
2.127,1.875,0,0,0,0,0
2.128,1.5625,0,0,0,0,0
2.129,1.25,0,0,0,0,0
2.13,1.5625,0,0,0,0,0
2.131,1.25,0,0,0,0,0
2.132,1.25,0,0,0,0,0
2.133,1.25,0,0,0,0,0
2.134,1.875,0,0,0,0,0
2.135,1.25,0,0,0,0,0
2.136,1.5625,0,0,0,0,0
2.137,1.875,0,0,0,0,0
2.138,1.875,0,0,0,0,0
2.139,1.875,0,0,0,0,0
2.14,1.5625,0,0,0,0,0
2.141,1.25,0,0,0,0,0
2.142,1.25,0,0,0,0,0
2.143,1.25,0,0,0,0,0
2.144,0.3125,0,0,0,0,0
2.145,0.625,0,0,0,0,0
2.146,0.3125,0,0,0,0,0
2.147,0,0,0,0,0,0
2.148,-0.9375,0,0,0,0,0
2.149,-0.625,0,0,0,0,0
2.15,0,0,0,0,0,0
2.151,0.625,0,0,0,0,0
2.152,0,0,0,0,0,0
2.153,0.625,0,0,0,0,0
2.154,0.9375,0,0,0,0,0
2.155,0.625,0,0,0,0,0
2.156,0.3125,0,0,0,0,0
2.157,0,0,0,0,0,0
2.158,0,0,0,0,0,0
2.159,0,0,0,0,0,0
2.16,0,0,0,0,0,0
2.161,0,0,0,0,0,0
2.162,0,0,0,0,0,0
2.163,-0.625,0,0,0,0,0
2.164,-0.3125,0,0,0,0,0
2.165,0,0,0,0,0,0
2.166,0,0,0,0,0,0
2.167,0.625,0,0,0,0,0
2.168,0.3125,0,0,0,0,0
2.169,0.625,0,0,0,0,0
2.17,0.625,0,0,0,0,0
2.171,0.625,0,0,0,0,0
2.172,0.625,0,0,0,0,0
2.173,0.625,0,0,0,0,0
2.174,0.625,0,0,0,0,0
2.175,0.625,0,0,0,0,0
2.176,0.625,0,0,0,0,0
2.177,0.625,0,0,0,0,0
2.178,0.3125,0,0,0,0,0
2.179,0.625,0,0,0,0,0
2.18,0.625,0,0,0,0,0
2.181,0.625,0,0,0,0,0
2.182,0.625,0,0,0,0,0
2.183,0.625,0,0,0,0,0
2.184,0.3125,0,0,0,0,0
2.185,0,0,0,0,0,0
2.186,-0.625,0,0,0,0,0
2.187,-0.625,0,0,0,0,0
2.188,-0.625,0,0,0,0,0
2.189,-0.625,0,0,0,0,0
2.19,-0.625,0,0,0,0,0
2.191,-1.25,0,0,0,0,0
2.192,-1.5625,0,0,0,0,0
2.193,-1.875,0,0,0,0,0
2.194,-1.875,0,0,0,0,0
2.195,-1.875,0,0,0,0,0
2.196,-2.1875,0,0,0,0,0
2.197,-2.5,0,0,0,0,0
2.198,-2.1875,0,0,0,0,0
2.199,-2.5,0,0,0,0,0
2.2,-2.5,0,0,0,0,0
2.201,-2.5,0,0,0,0,0
2.202,-2.5,0,0,0,0,0
2.203,-2.5,0,0,0,0,0
2.204,-2.5,0,0,0,0,0
2.205,-2.5,0,0,0,0,0
2.206,-2.5,0,0,0,0,0
2.207,-2.5,0,0,0,0,0
2.208,-2.5,0,0,0,0,0
2.209,-2.5,0,0,0,0,0
2.21,-2.5,0,0,0,0,0
2.211,-2.5,0,0,0,0,0
2.212,-2.5,0,0,0,0,0
2.213,-3.125,0,0,0,0,0
2.214,-3.125,0,0,0,0,0
2.215,-3.125,0,0,0,0,0
2.216,-3.125,0,0,0,0,0
2.217,-3.125,0,0,0,0,0
2.218,-3.125,0,0,0,0,0
2.219,-3.125,0,0,0,0,0
2.22,-3.125,0,0,0,0,0
2.221,-3.125,0,0,0,0,0
2.222,-3.125,0,0,0,0,0
2.223,-3.125,0,0,0,0,0
2.224,-2.8125,0,0,0,0,0
2.225,-2.5,0,0,0,0,0
2.226,-2.8125,0,0,0,0,0
2.227,-2.5,0,0,0,0,0
2.228,-2.8125,0,0,0,0,0
2.229,-1.875,0,0,0,0,0
2.23,-1.875,0,0,0,0,0
2.231,-1.875,0,0,0,0,0
2.232,-1.875,0,0,0,0,0
2.233,-1.875,0,0,0,0,0
2.234,-2.5,0,0,0,0,0
2.235,-2.5,0,0,0,0,0
2.236,-2.1875,0,0,0,0,0
2.237,-3.125,0,0,0,0,0
2.238,-2.8125,0,0,0,0,0
2.239,-3.125,0,0,0,0,0
2.24,-2.5,0,0,0,0,0
2.241,-3.125,0,0,0,1,0
2.242,-2.5,0,0,0,0,0
2.243,-2.5,0,0,0,0,0
2.244,-2.5,0,0,0,0,0
2.245,-2.5,0,0,0,0,0
2.246,-2.1875,0,0,0,0,0
2.247,-1.875,0,0,0,0,0
2.248,-2.5,0,0,0,0,0
2.249,-2.5,0,0,0,0,0
2.25,-2.1875,0,0,0,0,0
2.251,-1.875,0,0,0,0,0
2.252,-1.25,0,0,0,0,0
2.253,-1.25,0,0,0,0,0
2.254,-0.625,0,0,0,0,0
2.255,-1.25,0,0,0,0,0
2.256,0,0,0,0,0,0
2.257,0,0,0,0,0,0
2.258,0,0,0,0,0,0
2.259,0,0,0,0,0,0
2.26,0,0,0,0,0,0
2.261,0,0,0,0,0,0
2.262,0,0,0,0,0,0
2.263,0.625,0,0,0,0,0
2.264,0.9375,0,0,0,0,0
2.265,1.25,0,0,0,0,0
2.266,1.875,0,0,0,0,0
2.267,1.875,0,0,0,0,0
2.268,2.1875,0,0,0,0,0
2.269,2.5,0,0,0,0,0
2.27,1.875,0,0,0,0,0
2.271,1.875,0,0,0,0,0
2.272,1.875,0,0,0,0,0
2.273,1.875,0,0,0,0,0
2.274,1.5625,0,0,0,0,0
2.275,1.25,0,0,0,0,0
2.276,1.875,0,0,0,0,0
2.277,1.875,0,0,0,0,0
2.278,1.875,0,0,0,0,0
2.279,1.875,0,0,0,0,0
2.28,1.875,0,0,0,0,0
2.281,1.875,0,0,0,0,0
2.282,2.1875,0,0,0,0,0
2.283,2.5,0,0,0,0,0
2.284,3.125,0,0,0,0,0
2.285,3.125,0,0,0,0,0
2.286,2.8125,0,0,0,0,0
2.287,3.125,0,0,0,0,0
2.288,3.125,0,0,0,0,0
2.289,2.5,0,0,0,0,0
2.29,3.125,0,0,0,0,0
2.291,3.125,0,0,0,0,0
2.292,2.5,0,0,0,0,0
2.293,3.125,0,0,0,0,0
2.294,2.8125,0,0,0,0,0
2.295,3.125,0,0,0,0,0
2.296,3.75,0,0,0,0,0
2.297,3.75,0,0,0,0,0
2.298,3.4375,0,0,0,0,0
2.299,3.125,0,0,0,0,0
2.3,3.4375,0,0,0,0,0
2.301,3.75,0,0,0,0,0
2.302,4.0625,0,0,0,0,0
2.303,4.375,0,0,0,0,0
2.304,4.375,0,0,0,0,0
2.305,4.375,0,0,0,0,0
2.306,4.375,0,0,0,0,0
2.307,3.75,0,0,0,0,0
2.308,4.375,0,0,0,0,0
2.309,3.75,0,0,0,0,0
2.31,3.4375,0,0,0,0,0
2.311,3.75,0,0,0,0,0
2.312,4.0625,0,0,0,0,0
2.313,3.75,0,0,0,0,0
2.314,3.4375,0,0,0,0,0
2.315,3.125,0,0,0,0,0
2.316,3.4375,0,0,0,0,0
2.317,3.75,0,0,0,0,0
2.318,3.75,0,0,0,0,0
2.319,3.75,0,0,0,0,0
2.32,3.75,0,0,0,0,0
2.321,3.75,0,0,0,0,0
2.322,3.75,0,0,0,0,0
2.323,3.75,0,0,0,0,0
2.324,3.125,0,0,0,0,0
2.325,3.125,0,0,0,0,0
2.326,3.4375,0,0,0,0,0
2.327,3.75,0,0,0,0,0
2.328,2.8125,0,0,0,0,0
2.329,2.5,0,0,0,0,0
2.33,2.5,0,0,0,0,0
2.331,2.5,0,0,0,0,0
2.332,2.5,0,0,0,0,0
2.333,2.5,0,0,0,0,0
2.334,2.5,0,0,0,0,0
2.335,2.5,0,0,0,0,0
2.336,2.5,0,0,0,0,0
2.337,2.5,0,0,0,0,0
2.338,2.1875,0,0,0,0,0
2.339,1.875,0,0,0,0,0
2.34,2.1875,0,0,0,0,0
2.341,1.875,0,0,0,0,0
2.342,2.1875,0,0,0,0,0
2.343,2.5,0,0,0,0,0
2.344,2.5,0,0,0,0,0
2.345,2.5,0,0,0,0,0
2.346,2.5,0,0,0,0,1
2.347,3.125,0,0,0,0,0
2.348,2.1875,0,0,0,0,0
2.349,2.5,0,0,0,0,0
2.35,2.5,0,0,0,0,0
2.351,1.875,0,0,0,0,0
2.352,1.875,0,0,0,0,0
2.353,1.875,0,0,0,0,0
2.354,1.5625,0,0,0,0,0
2.355,1.25,0,0,0,0,0
2.356,1.25,0,0,0,0,0
2.357,1.25,0,0,0,0,0
2.358,0.9375,0,0,0,0,0
2.359,0.625,0,0,0,0,0
2.36,1.25,0,0,0,0,0
2.361,0.625,0,0,0,0,0
2.362,0.625,0,0,0,0,0
2.363,0.625,0,0,0,0,0
2.364,0.625,0,0,0,0,0
2.365,0.625,0,0,0,0,0
2.366,0.625,0,0,0,0,0
2.367,0.625,0,0,0,0,0
2.368,0.625,0,0,0,0,0
2.369,0,0,0,0,0,0
2.37,0.3125,0,0,0,0,0
2.371,0.625,0,0,0,0,0
2.372,0.3125,0,0,0,0,0
2.373,0.625,0,0,0,0,0
2.374,0.3125,0,0,0,0,0
2.375,0,0,0,0,0,0
2.376,0.3125,0,0,0,0,0
2.377,0.625,0,0,0,0,0
2.378,0.9375,0,0,0,0,0
2.379,1.25,0,0,0,0,0
2.38,1.875,0,0,0,0,0
2.381,2.5,0,0,0,0,0
2.382,2.5,0,0,0,0,0
2.383,2.5,0,0,0,0,0
2.384,2.5,0,0,0,0,0
2.385,2.5,0,0,0,0,0
2.386,2.5,0,0,0,0,0
2.387,2.5,0,0,0,0,0
2.388,2.5,0,0,0,0,0
2.389,2.5,0,0,0,0,0
2.39,2.8125,0,0,0,0,0
2.391,2.5,0,0,0,0,0
2.392,2.5,0,0,0,0,0
2.393,2.5,0,0,0,0,0
2.394,2.5,0,0,0,0,0
2.395,2.5,0,0,0,0,0
2.396,2.5,0,0,0,0,0
2.397,2.5,0,0,0,0,0
2.398,2.1875,0,0,0,0,0
2.399,1.875,0,0,0,0,0
2.4,2.1875,0,0,0,0,0
2.401,2.5,0,0,0,0,0
2.402,1.875,0,0,0,0,0
2.403,1.875,0,0,0,0,0
2.404,1.875,0,0,0,0,0
2.405,2.5,0,0,0,0,0
2.406,1.875,0,0,0,0,0
2.407,1.875,0,0,0,0,0
2.408,1.875,0,0,0,0,0
2.409,1.875,0,0,0,0,0
2.41,1.875,0,0,0,0,0
2.411,1.25,0,0,0,0,0
2.412,1.25,0,0,0,0,0
2.413,1.25,0,0,0,0,0
2.414,1.5625,0,0,0,0,0
2.415,1.875,0,0,0,0,0
2.416,0.9375,0,0,0,0,0
2.417,0.625,0,0,0,0,0
2.418,1.5625,0,0,0,0,0
2.419,1.25,0,0,0,0,0
2.42,1.5625,0,0,0,0,0
2.421,1.875,0,0,0,0,0
2.422,2.1875,0,0,0,0,0
2.423,2.5,0,0,0,0,0
2.424,2.1875,0,0,0,0,0
2.425,1.875,0,0,0,0,0
2.426,2.5,0,0,0,0,0
2.427,2.5,0,0,0,0,0
2.428,1.5625,0,0,0,0,0
2.429,1.875,0,0,0,0,0
2.43,1.875,0,0,0,0,0
2.431,1.25,0,0,0,0,0
2.432,1.5625,0,0,0,0,0
2.433,1.25,0,0,0,0,0
2.434,1.25,0,0,0,0,0
2.435,1.25,0,0,0,0,0
2.436,1.5625,0,0,0,0,0
2.437,1.875,0,0,0,0,0
2.438,1.5625,0,0,0,0,0
2.439,1.875,0,0,0,0,0
2.44,2.5,0,0,0,0,0
2.441,2.5,0,0,0,0,0
2.442,2.8125,0,0,0,0,0
2.443,2.5,0,0,0,0,0
2.444,2.8125,0,0,0,0,0
2.445,2.5,0,0,0,0,0
2.446,2.1875,0,0,0,0,0
2.447,1.875,0,0,0,0,0
2.448,1.5625,0,0,0,0,0
2.449,1.25,0,0,0,0,0
2.45,1.5625,0,0,0,0,0
2.451,1.875,0,0,0,0,0
2.452,1.5625,0,0,0,0,0
2.453,1.25,0,0,0,0,0
2.454,1.25,0,0,0,0,0
2.455,1.25,0,0,0,0,0
2.456,0.9375,0,0,0,0,0
2.457,1.25,0,0,0,0,0
2.458,0.9375,0,0,0,0,0
2.459,1.25,0,0,0,0,0
2.46,1.5625,0,0,0,0,0
2.461,1.25,0,0,0,0,0
2.462,1.25,0,0,0,0,0
2.463,1.25,0,0,0,0,0
2.464,2.1875,0,0,0,0,0
2.465,1.875,0,0,0,0,0
2.466,1.5625,0,0,0,0,0
2.467,1.25,0,0,0,0,0
2.468,1.5625,0,0,0,0,0
2.469,1.875,0,0,0,0,0
2.47,1.875,0,0,0,0,0
2.471,1.875,0,0,0,0,0
2.472,2.1875,0,0,0,0,0
2.473,1.875,0,0,0,0,0
2.474,2.1875,0,0,0,0,0
2.475,1.875,0,0,0,0,0
2.476,1.875,0,0,0,0,0
2.477,1.875,0,0,0,0,0
2.478,1.875,0,0,0,0,0
2.479,1.875,0,0,0,0,0
2.48,1.875,0,0,0,0,0
2.481,1.875,0,0,0,0,0
2.482,1.5625,0,0,0,0,0
2.483,1.25,0,0,0,0,0
2.484,0.9375,0,0,0,0,0
2.485,1.25,0,0,0,0,0
2.486,0.625,0,0,0,0,0
2.487,0.625,0,0,0,0,0
2.488,0.3125,0,0,0,0,0
2.489,0,0,0,0,0,0
2.49,0.625,0,0,0,0,0
2.491,1.25,0,0,0,0,0
2.492,1.25,0,0,0,0,0
2.493,1.25,0,0,0,0,0
2.494,1.875,0,0,0,0,0
2.495,1.25,0,0,0,0,0
2.496,1.875,0,0,0,0,0
2.497,1.875,0,0,0,0,0
2.498,2.1875,0,0,0,0,0
2.499,1.875,0,0,0,0,0
2.5,1.5625,0,0,0,0,0
2.501,1.875,0,0,0,0,0
2.502,2.1875,0,0,0,0,0
2.503,1.875,0,0,0,0,0
2.504,1.5625,0,0,0,0,0
2.505,1.875,0,0,0,0,0
2.506,1.25,0,0,0,0,0
2.507,1.25,0,0,0,0,0
2.508,0.9375,0,0,0,0,0
2.509,0.625,0,0,0,0,0
2.51,0.9375,0,0,0,0,0
2.511,0.625,0,0,0,0,0
2.512,0.625,0,0,0,0,0
2.513,0.625,0,0,0,0,0
2.514,0.625,0,0,0,0,0
2.515,0.625,0,0,0,0,0
2.516,0.3125,0,0,0,0,0
2.517,0,0,0,0,0,0
2.518,0.3125,0,0,0,0,0
2.519,0,0,0,0,0,0
2.52,-0.3125,0,0,0,0,0
2.521,-0.625,0,0,0,0,0
2.522,-0.3125,0,0,0,0,0
2.523,0,0,0,0,0,0
2.524,0.625,0,0,0,0,0
2.525,0.625,0,0,0,0,0
2.526,0.9375,0,0,0,0,0
2.527,1.25,0,0,0,0,0
2.528,2.1875,0,0,0,0,0
2.529,1.875,0,0,0,0,0
2.53,1.5625,0,0,0,0,0
2.531,1.25,0,0,0,0,0
2.532,2.1875,0,0,0,0,0
2.533,2.5,0,0,0,0,0
2.534,2.8125,0,0,0,0,0
2.535,3.125,0,0,0,0,0
2.536,3.125,0,0,0,0,0
2.537,3.125,0,0,0,0,0
2.538,3.125,0,0,0,0,0
2.539,3.125,0,0,0,0,0
2.54,3.125,0,0,0,0,0
2.541,3.125,0,0,0,0,0
2.542,3.125,0,0,0,0,0
2.543,3.125,0,0,0,0,0
2.544,3.125,0,0,0,0,0
2.545,3.125,0,0,0,0,0
2.546,3.4375,0,0,0,0,0
2.547,3.75,0,0,0,0,0
2.548,3.4375,0,0,0,0,0
2.549,3.125,0,0,0,0,0
2.55,3.4375,0,0,0,0,0
2.551,3.75,0,0,0,0,0
2.552,3.75,0,0,0,0,0
2.553,3.75,0,0,0,0,0
2.554,3.75,0,0,0,0,0
2.555,3.75,0,0,0,0,0
2.556,3.75,0,0,0,0,0
2.557,3.75,0,0,0,0,0
2.558,3.75,0,0,0,0,0
2.559,3.75,0,0,0,0,0
2.56,3.4375,0,0,0,0,0
2.561,3.125,0,0,0,0,0
2.562,3.4375,0,0,0,0,0
2.563,3.75,0,0,0,0,0
2.564,4.0625,0,0,0,0,0
2.565,4.375,0,0,0,0,0
2.566,4.6875,0,0,0,0,0
2.567,5,0,0,0,0,0
2.568,5,0,0,0,0,0
2.569,5,0,0,0,0,0
2.57,4.6875,0,0,0,0,0
2.571,4.375,0,0,0,0,0
2.572,4.375,0,0,0,0,0
2.573,4.375,0,0,0,0,0
2.574,4.375,0,0,0,0,0
2.575,4.375,0,0,0,0,0
2.576,4.375,0,0,0,0,0
2.577,4.375,0,0,0,0,0
2.578,4.375,0,0,0,0,0
2.579,4.375,0,0,0,0,0
2.58,4.375,0,0,0,0,0
2.581,4.375,0,0,0,0,0
2.582,4.0625,0,0,0,0,0
2.583,3.75,0,0,0,0,0
2.584,3.4375,0,0,0,0,0
2.585,3.125,0,0,0,0,0
2.586,2.8125,0,0,0,0,0
2.587,2.5,0,0,0,0,0
2.588,2.1875,0,0,0,0,0
2.589,1.875,0,0,0,0,0
2.59,1.875,0,0,0,0,0
2.591,1.875,0,0,0,0,0
2.592,1.5625,0,0,0,0,0
2.593,1.25,0,0,0,0,0
2.594,1.25,0,0,0,0,0
2.595,1.25,0,0,0,0,0
2.596,0.9375,0,0,0,0,0
2.597,0.625,0,0,0,0,0
2.598,0.9375,0,0,0,0,0
2.599,1.25,0,0,0,0,0
2.6,1.25,0,0,0,0,0
2.601,1.25,0,0,0,0,0
2.602,1.25,0,0,0,0,0
2.603,1.25,0,0,0,0,0
2.604,0.9375,0,0,0,0,0
2.605,0.625,0,0,0,0,0
2.606,0.9375,0,0,0,0,0
2.607,1.25,0,0,0,0,0
2.608,0.9375,0,0,0,0,0
2.609,0.625,0,0,0,0,0
2.61,0.625,0,0,0,0,0
2.611,0.625,0,0,0,0,0
2.612,0.625,0,0,0,0,0
2.613,0.625,0,0,0,0,0
2.614,0.625,0,0,0,0,0
2.615,0.625,0,0,0,0,0
2.616,0.3125,0,0,0,0,0
2.617,0,0,0,0,0,0
2.618,0,0,0,0,0,0
2.619,0,0,0,0,0,0
2.62,0.3125,0,0,0,0,0
2.621,0.625,0,0,0,0,0
2.622,0.625,0,0,0,0,0
2.623,0.625,0,0,0,0,0
2.624,0.3125,0,0,0,0,0
2.625,0,0,0,0,0,0
2.626,0.3125,0,0,0,0,0
2.627,0.625,0,0,0,0,0
2.628,0.3125,0,0,0,0,0
2.629,0,0,0,0,0,0
2.63,0,0,0,0,0,0
2.631,0,0,0,0,0,0
2.632,0,0,0,0,0,0
2.633,0,0,0,0,0,0
2.634,-0.3125,0,0,0,0,0
2.635,-0.625,0,0,0,0,0
2.636,-0.3125,0,0,0,0,0
2.637,0,0,0,0,0,0
2.638,0.3125,0,0,0,0,0
2.639,0.625,0,0,0,0,0
2.64,0.3125,0,0,0,0,0
2.641,0,0,0,0,0,0
2.642,-0.3125,0,0,0,0,0
2.643,-0.625,0,0,0,0,0
2.644,-0.625,0,0,0,0,0
2.645,-0.625,0,0,0,0,0
2.646,-0.3125,0,0,0,0,0
2.647,0,0,0,0,0,0
2.648,0,0,0,0,0,0
2.649,0,0,0,0,0,0
2.65,0,0,0,0,0,0
2.651,0,0,0,0,0,0
2.652,0,0,0,0,0,0
2.653,0,0,0,0,0,0
2.654,0,0,0,0,0,0
2.655,0,0,0,0,0,0
2.656,-0.3125,0,0,0,0,0
2.657,-0.625,0,0,0,0,0
2.658,-0.9375,0,0,0,0,0
2.659,-1.25,0,0,0,0,0
2.66,-0.9375,0,0,0,0,0
2.661,-0.625,0,0,0,0,0
2.662,-0.625,0,0,0,0,0
2.663,-0.625,0,0,0,0,0
2.664,-0.3125,0,0,0,0,0
2.665,0,0,0,0,0,0
2.666,0,0,0,0,0,0
2.667,0,0,0,0,0,0
2.668,-0.3125,0,0,0,0,0
2.669,-0.625,0,0,0,0,0
2.67,-0.625,0,0,0,0,0
2.671,-0.625,0,0,0,0,0
2.672,-0.3125,0,0,0,0,0
2.673,0,0,0,0,0,0
2.674,-0.3125,0,0,0,0,0
2.675,-0.625,0,0,0,0,0
2.676,-0.3125,0,0,0,0,0
2.677,0,0,0,0,0,0
2.678,0,0,0,0,0,0
2.679,0,1,0,0,0,0
2.68,0,0,0,0,0,0
2.681,0,0,0,0,0,0
2.682,0,0,0,0,0,0
2.683,0,0,0,0,0,0
2.684,-0.3125,0,0,0,0,0
2.685,-0.625,0,0,0,0,0
2.686,-0.3125,0,0,0,0,0
2.687,0,0,0,0,0,0
2.688,-0.3125,0,0,0,0,0
2.689,-0.625,0,0,0,0,0
2.69,-0.3125,0,0,0,0,0
2.691,0,0,0,0,0,0
2.692,0,0,0,0,0,0
2.693,0,0,0,0,0,0
2.694,0,0,0,0,0,0
2.695,0,0,0,0,0,0
2.696,0,0,0,0,0,0
2.697,0,0,0,0,0,0
2.698,0,0,0,0,0,0
2.699,0,0,0,0,0,0
2.7,-0.3125,0,0,0,0,0
2.701,-0.625,0,0,0,0,0
2.702,-0.625,0,0,0,0,0
2.703,-0.625,0,0,0,0,0
2.704,-0.3125,0,0,0,0,0
2.705,0,0,0,0,0,0
2.706,0.3125,0,0,0,0,0
2.707,0.625,0,0,0,0,0
2.708,1.25,0,0,0,0,0
2.709,1.875,0,0,0,0,0
2.71,2.1875,0,0,0,0,0
2.711,2.5,0,0,0,0,0
2.712,3.125,0,0,0,0,0
2.713,3.75,0,0,0,0,0
2.714,4.6875,0,0,0,0,0
2.715,5.625,0,0,0,0,0
2.716,6.5625,0,0,0,0,0
2.717,7.5,0,0,0,0,0
2.718,8.4375,0,0,0,0,0
2.719,9.375,0,0,0,0,0
2.72,10,0,0,0,0,0
2.721,10.625,0,0,0,0,0
2.722,12.188,0,0,0,0,0
2.723,13.75,0,0,0,0,0
2.724,15,0,0,0,0,0
2.725,16.25,0,0,0,0,0
2.726,17.813,0,0,0,0,0
2.727,19.375,0,1,0,0,0
2.728,20.938,0,0,0,0,0
2.729,22.5,0,0,0,0,0
2.73,23.125,0,0,0,0,0
2.731,23.75,0,0,0,0,0
2.732,24.063,0,0,0,0,0
2.733,24.375,0,0,0,0,0
2.734,24.063,0,0,0,0,0
2.735,23.75,0,0,0,0,0
2.736,23.125,0,0,0,0,0
2.737,22.5,0,0,0,0,0
2.738,21.875,0,0,0,0,0
2.739,21.25,0,0,0,0,0
2.74,20,0,0,0,0,0
2.741,18.75,0,0,0,0,0
2.742,17.5,0,0,0,0,0
2.743,16.25,0,0,0,0,0
2.744,14.063,0,0,0,0,0
2.745,11.875,0,0,0,0,0
2.746,8.75,0,0,0,0,0
2.747,5.625,0,0,0,0,0
2.748,0.625,0,0,0,0,0
2.749,-4.375,0,0,0,0,0
2.75,-7.1875,0,0,0,0,0
2.751,-10,0,0,0,0,0
2.752,-12.188,0,0,0,0,0
2.753,-14.375,0,0,0,0,0
2.754,-15.313,0,0,0,0,0
2.755,-16.25,0,0,0,0,0
2.756,-16.25,0,0,0,0,0
2.757,-16.25,0,0,0,0,0
2.758,-14.375,0,0,0,0,0
2.759,-12.5,0,0,0,0,0
2.76,-10.938,0,0,0,0,0
2.761,-9.375,0,0,0,0,0
2.762,-9.0625,0,0,0,0,0
2.763,-8.75,0,0,0,0,0
2.764,-8.4375,0,0,0,0,0
2.765,-8.125,0,0,0,0,0
2.766,-7.1875,0,0,0,0,0
2.767,-6.25,0,0,0,0,0
2.768,-5.625,0,0,0,0,0
2.769,-5,0,0,0,0,0
2.77,-4.6875,0,0,0,0,0
2.771,-4.375,0,0,0,0,0
2.772,-4.375,0,0,0,0,0
2.773,-4.375,0,0,0,0,0
2.774,-4.375,0,0,0,0,0
2.775,-4.375,0,0,0,0,0
2.776,-4.0625,0,0,0,0,0
2.777,-3.75,0,0,0,0,0
2.778,-3.75,0,0,0,0,0
2.779,-3.75,0,0,0,0,0
2.78,-3.75,0,0,0,0,0
2.781,-3.75,0,0,0,0,0
2.782,-3.75,0,0,0,0,0
2.783,-3.75,0,0,0,0,0
2.784,-4.0625,0,0,0,0,0
2.785,-4.375,0,0,0,0,0
2.786,-4.375,0,0,0,0,0
2.787,-4.375,0,0,0,0,0
2.788,-4.6875,0,0,0,0,0
2.789,-5,0,0,0,0,0
2.79,-5,0,0,0,0,0
2.791,-5,0,0,0,0,0
2.792,-4.6875,0,0,0,0,0
2.793,-4.375,0,0,0,0,0
2.794,-4.6875,0,0,0,0,0
2.795,-5,0,0,0,0,0
2.796,-5,0,0,0,0,0
2.797,-5,0,0,0,0,0
2.798,-5,0,0,0,0,0
2.799,-5,0,0,0,0,0
2.8,-5,0,0,0,0,0
2.801,-5,0,0,0,0,0
2.802,-4.6875,0,0,0,0,0
2.803,-4.375,0,0,0,0,0
2.804,-4.375,0,0,0,0,0
2.805,-4.375,0,0,0,0,0
2.806,-4.6875,0,0,0,0,0
2.807,-5,0,0,0,0,0
2.808,-5,0,0,0,0,0
2.809,-5,0,0,0,0,0
2.81,-5,0,0,0,0,0
2.811,-5,0,0,0,0,0
2.812,-5.3125,0,0,0,0,0
2.813,-5.625,0,0,0,0,0
2.814,-5.9375,0,0,0,0,0
2.815,-6.25,0,0,0,0,0
2.816,-6.25,0,0,0,0,0
2.817,-6.25,0,0,0,0,0
2.818,-6.25,0,0,0,0,0
2.819,-6.25,0,0,0,0,0
2.82,-6.5625,0,0,0,0,0
2.821,-6.875,0,0,0,0,0
2.822,-6.5625,0,0,0,0,0
2.823,-6.25,0,0,0,0,0
2.824,-5.9375,0,0,0,0,0
2.825,-5.625,0,0,0,0,0
2.826,-5.625,0,0,0,0,0
2.827,-5.625,0,0,0,0,0
2.828,-5.625,0,0,0,0,0
2.829,-5.625,0,0,0,0,0
2.83,-5.625,0,0,0,0,0
2.831,-5.625,0,0,0,0,0
2.832,-5.625,0,0,0,0,0
2.833,-5.625,0,0,0,0,0
2.834,-5.3125,0,0,0,0,0
2.835,-5,0,0,0,0,0
2.836,-5,0,0,0,0,0
2.837,-5,0,0,0,0,0
2.838,-4.375,0,0,0,0,0
2.839,-3.75,0,0,0,0,0
2.84,-3.75,0,0,0,0,0
2.841,-3.75,0,0,0,0,0
2.842,-3.4375,0,0,0,0,0
2.843,-3.125,0,0,0,0,0
2.844,-2.8125,0,0,0,0,0
2.845,-2.5,0,0,0,0,0
2.846,-2.1875,0,0,0,0,0
2.847,-1.875,0,0,0,0,0
2.848,-1.5625,0,0,0,0,0
2.849,-1.25,0,0,0,0,0
2.85,-1.25,0,0,0,0,0
2.851,-1.25,0,0,0,0,0
2.852,-1.25,0,0,0,0,0
2.853,-1.25,0,0,0,0,0
2.854,-1.25,0,0,0,0,0
2.855,-1.25,0,0,0,0,0
2.856,-1.25,0,0,0,0,0
2.857,-1.25,0,0,0,0,0
2.858,-0.9375,0,0,0,0,0
2.859,-0.625,0,0,0,0,0
2.86,-0.9375,0,0,0,0,0
2.861,-1.25,0,0,0,0,0
2.862,-0.9375,0,0,0,0,0
2.863,-0.625,0,0,0,0,0
2.864,-0.625,0,0,0,0,0
2.865,-0.625,0,0,0,0,0
2.866,0,0,0,0,0,0
2.867,0.625,0,0,0,0,0
2.868,0.9375,0,0,0,0,0
2.869,1.25,0,0,0,0,0
2.87,1.25,0,0,0,0,0
2.871,1.25,0,0,0,0,0
2.872,1.25,0,0,0,0,0
2.873,1.25,0,0,0,0,0
2.874,1.25,0,0,0,0,0
2.875,1.25,0,0,1,0,0
2.876,1.25,0,0,0,0,0
2.877,1.25,0,0,0,0,0
2.878,1.25,0,0,0,0,0
2.879,1.25,0,0,0,0,0
2.88,1.5625,0,0,0,0,0
2.881,1.875,0,0,0,0,0
2.882,1.25,0,0,0,0,0
2.883,0.625,0,0,0,0,0
2.884,0.625,0,0,0,0,0
2.885,0.625,0,0,0,0,0
2.886,0.3125,0,0,0,0,0
2.887,0,0,0,0,0,0
2.888,0,0,0,0,0,0
2.889,0,0,0,0,0,0
2.89,0.3125,0,0,0,0,0
2.891,0.625,0,0,0,0,0
2.892,0.9375,0,0,0,0,0
2.893,1.25,0,0,0,0,0
2.894,1.25,0,0,0,0,0
2.895,1.25,0,0,0,0,0
2.896,1.5625,0,0,0,0,0
2.897,1.875,0,0,0,0,0
2.898,1.5625,0,0,0,0,0
2.899,1.25,0,0,0,0,0
2.9,1.25,0,0,0,0,0
2.901,1.25,0,0,0,0,0
2.902,0.9375,0,0,0,0,0
2.903,0.625,0,0,0,0,0
2.904,0.9375,0,0,0,0,0
2.905,1.25,0,0,0,0,0
2.906,1.25,0,0,0,0,0
2.907,1.25,0,0,0,0,0
2.908,1.25,0,0,0,0,0
2.909,1.25,0,0,0,0,0
2.91,0.9375,0,0,0,0,0
2.911,0.625,0,0,0,0,0
2.912,0.625,0,0,0,0,0
2.913,0.625,0,0,0,0,0
2.914,0.9375,0,0,0,0,0
2.915,1.25,0,0,0,0,0
2.916,1.25,0,0,0,0,0
2.917,1.25,0,0,0,0,0
2.918,1.25,0,0,0,0,0
2.919,1.25,0,0,0,0,0
2.92,1.25,0,0,0,0,0
2.921,1.25,0,0,0,0,0
2.922,1.25,0,0,0,0,0
2.923,1.25,0,0,0,0,0
2.924,0.9375,0,0,0,0,0
2.925,0.625,0,0,0,0,0
2.926,0.625,0,0,0,0,0
2.927,0.625,0,0,0,0,0
2.928,0.9375,0,0,0,0,0
2.929,1.25,0,0,0,0,0
2.93,0.9375,0,0,0,0,0
2.931,0.625,0,0,0,0,0
2.932,0.9375,0,0,0,0,0
2.933,1.25,0,0,0,0,0
2.934,0.9375,0,0,0,0,0
2.935,0.625,0,0,0,0,0
2.936,0.9375,0,0,0,0,0
2.937,1.25,0,0,0,0,0
2.938,1.25,0,0,0,0,0
2.939,1.25,0,0,0,0,0
2.94,1.25,0,0,0,0,0
2.941,1.25,0,0,0,0,0
2.942,0.9375,0,0,0,0,0
2.943,0.625,0,0,0,0,0
2.944,0.625,0,0,0,0,0
2.945,0.625,0,0,0,0,0
2.946,0.9375,0,0,0,0,0
2.947,1.25,0,0,0,0,0
2.948,1.25,0,0,0,0,0
2.949,1.25,0,0,0,0,0
2.95,0.9375,0,0,0,0,0
2.951,0.625,0,0,0,0,0
2.952,0.625,0,0,0,0,0
2.953,0.625,0,0,0,0,0
2.954,0.625,0,0,0,0,0
2.955,0.625,0,0,0,0,0
2.956,0.9375,0,0,0,0,0
2.957,1.25,0,0,0,0,0
2.958,1.25,0,0,0,0,0
2.959,1.25,0,0,0,0,0
2.96,0.9375,0,0,0,0,0
2.961,0.625,0,0,0,0,0
2.962,0.3125,0,0,0,0,0
2.963,0,0,0,0,0,0
2.964,0,0,0,0,0,0
2.965,0,0,0,0,0,0
2.966,-0.3125,0,0,0,0,0
2.967,-0.625,0,0,0,0,0
2.968,-0.625,0,0,0,0,0
2.969,-0.625,0,0,0,0,0
2.97,-0.9375,0,0,0,0,0
2.971,-1.25,0,0,0,0,0
2.972,-1.5625,0,0,0,0,0
2.973,-1.875,0,0,0,0,0
2.974,-1.875,0,0,0,0,0
2.975,-1.875,0,0,0,0,0
2.976,-1.5625,0,0,0,0,0
2.977,-1.25,0,0,0,0,0
2.978,-1.5625,0,0,0,0,0
2.979,-1.875,0,0,0,0,0
2.98,-1.875,0,0,0,0,0
2.981,-1.875,0,0,0,0,0
2.982,-1.5625,0,0,0,0,0
2.983,-1.25,0,0,0,0,0
2.984,-1.25,0,0,0,0,0
2.985,-1.25,0,0,0,0,0
2.986,-0.9375,0,0,0,0,0
2.987,-0.625,0,0,0,0,0
2.988,-0.9375,0,0,0,0,0
2.989,-1.25,0,0,0,0,0
2.99,-1.25,0,0,0,0,0
2.991,-1.25,0,0,0,0,0
2.992,-1.25,0,0,0,0,0
2.993,-1.25,0,0,0,0,0
2.994,-1.25,0,0,0,0,0
2.995,-1.25,0,0,0,0,0
2.996,-1.875,0,0,0,0,0
2.997,-2.5,0,0,0,0,0
2.998,-2.5,0,0,0,0,0
2.999,-2.5,0,0,0,0,0
3,-2.5,0,0,0,0,0
3.001,-2.5,0,0,0,0,0
3.002,-2.1875,0,0,0,0,0
3.003,-1.875,0,0,0,0,0
3.004,-2.1875,0,0,0,0,0
3.005,-2.5,0,0,0,0,0
3.006,-2.8125,0,0,0,0,0
3.007,-3.125,0,0,0,0,0
3.008,-3.125,0,0,0,0,0
3.009,-3.125,0,0,0,0,0
3.01,-3.125,0,0,0,0,0
3.011,-3.125,0,0,0,0,0
3.012,-2.8125,0,0,0,0,0
3.013,-2.5,0,0,0,0,0
3.014,-2.8125,0,0,0,0,0
3.015,-3.125,0,0,0,0,0
3.016,-3.125,0,0,0,0,0
3.017,-3.125,0,0,0,0,0
3.018,-3.4375,0,0,0,0,0
3.019,-3.75,0,0,0,0,0
3.02,-3.75,0,0,0,0,0
3.021,-3.75,0,0,0,0,0
3.022,-3.75,0,0,0,0,0
3.023,-3.75,0,0,0,0,0
3.024,-4.0625,0,0,0,0,0
3.025,-4.375,0,0,0,0,0
3.026,-4.375,0,0,0,0,0
3.027,-4.375,0,0,0,0,0
3.028,-4.6875,0,0,0,1,0
3.029,-4.375,0,0,0,0,0
3.03,-4.375,0,0,0,0,0
3.031,-4.375,0,0,0,0,0
3.032,-3.75,0,0,0,0,0
3.033,-3.125,0,0,0,0,0
3.034,-2.8125,0,0,0,0,0
3.035,-2.5,0,0,0,0,0
3.036,-2.1875,0,0,0,0,0
3.037,-1.875,0,0,0,0,0
3.038,-2.1875,0,0,0,0,0
3.039,-1.875,0,0,0,0,0
3.04,-1.5625,0,0,0,0,0
3.041,-1.25,0,0,0,0,0
3.042,-0.9375,0,0,0,0,0
3.043,-0.625,0,0,0,0,0
3.044,-0.3125,0,0,0,0,0
3.045,-0.625,0,0,0,0,0
3.046,-0.9375,0,0,0,0,0
3.047,-1.25,0,0,0,0,0
3.048,-0.3125,0,0,0,0,0
3.049,0,0,0,0,0,0
3.05,0,0,0,0,0,0
3.051,0,0,0,0,0,0
3.052,0.3125,0,0,0,0,0
3.053,0,0,0,0,0,0
3.054,0.3125,0,0,0,0,0
3.055,0,0,0,0,0,0
3.056,0,0,0,0,0,0
3.057,0,0,0,0,0,0
3.058,0.625,0,0,0,0,0
3.059,0.625,0,0,0,0,0
3.06,0.9375,0,0,0,0,0
3.061,1.25,0,0,0,0,0
3.062,1.25,0,0,0,0,0
3.063,1.875,0,0,0,0,0
3.064,2.1875,0,0,0,0,0
3.065,2.5,0,0,0,0,0
3.066,2.1875,0,0,0,0,0
3.067,2.5,0,0,0,0,0
3.068,2.8125,0,0,0,0,0
3.069,3.125,0,0,0,0,0
3.07,3.125,0,0,0,0,0
3.071,3.125,0,0,0,0,0
3.072,3.125,0,0,0,0,0
3.073,3.125,0,0,0,0,0
3.074,3.4375,0,0,0,0,0
3.075,3.125,0,0,0,0,0
3.076,3.125,0,0,0,0,0
3.077,3.125,0,0,0,0,0
3.078,3.125,0,0,0,0,0
3.079,3.75,0,0,0,0,0
3.08,3.4375,0,0,0,0,0
3.081,3.75,0,0,0,0,0
3.082,3.75,0,0,0,0,0
3.083,3.75,0,0,0,0,0
3.084,3.4375,0,0,0,0,0
3.085,3.125,0,0,0,0,0
3.086,3.125,0,0,0,0,0
3.087,3.125,0,0,0,0,0
3.088,3.75,0,0,0,0,0
3.089,3.75,0,0,0,0,0
3.09,3.4375,0,0,0,0,0
3.091,2.5,0,0,0,0,0
3.092,3.4375,0,0,0,0,0
3.093,3.75,0,0,0,0,0
3.094,4.0625,0,0,0,0,0
3.095,4.375,0,0,0,0,0
3.096,4.375,0,0,0,0,0
3.097,4.375,0,0,0,0,0
3.098,3.75,0,0,0,0,0
3.099,4.375,0,0,0,0,0
3.1,4.375,0,0,0,0,0
3.101,4.375,0,0,0,0,0
3.102,4.375,0,0,0,0,0
3.103,4.375,0,0,0,0,0
3.104,4.0625,0,0,0,0,0
3.105,4.375,0,0,0,0,0
3.106,4.0625,0,0,0,0,0
3.107,3.75,0,0,0,0,0
3.108,4.0625,0,0,0,0,0
3.109,4.375,0,0,0,0,0
3.11,4.0625,0,0,0,0,0
3.111,3.75,0,0,0,0,0
3.112,4.375,0,0,0,0,0
3.113,4.375,0,0,0,0,0
3.114,3.4375,0,0,0,0,0
3.115,2.5,0,0,0,0,0
3.116,2.1875,0,0,0,0,0
3.117,2.5,0,0,0,0,0
3.118,3.125,0,0,0,0,1
3.119,3.125,0,0,0,0,0
3.12,2.8125,0,0,0,0,0
3.121,2.5,0,0,0,0,0
3.122,2.5,0,0,0,0,0
3.123,2.5,0,0,0,0,0
3.124,1.875,0,0,0,0,0
3.125,1.875,0,0,0,0,0
3.126,2.1875,0,0,0,0,0
3.127,2.5,0,0,0,0,0
3.128,2.5,0,0,0,0,0
3.129,2.5,0,0,0,0,0
3.13,2.5,0,0,0,0,0
3.131,2.5,0,0,0,0,0
3.132,2.5,0,0,0,0,0
3.133,2.5,0,0,0,0,0
3.134,2.5,0,0,0,0,0
3.135,1.875,0,0,0,0,0
3.136,2.1875,0,0,0,0,0
3.137,2.5,0,0,0,0,0
3.138,1.875,0,0,0,0,0
3.139,1.875,0,0,0,0,0
3.14,1.875,0,0,0,0,0
3.141,1.875,0,0,0,0,0
3.142,1.875,0,0,0,0,0
3.143,1.875,0,0,0,0,0
3.144,2.1875,0,0,0,0,0
3.145,1.875,0,0,0,0,0
3.146,2.5,0,0,0,0,0
3.147,2.5,0,0,0,0,0
3.148,2.8125,0,0,0,0,0
3.149,3.125,0,0,0,0,0
3.15,2.8125,0,0,0,0,0
3.151,2.5,0,0,0,0,0
3.152,1.875,0,0,0,0,0
3.153,1.875,0,0,0,0,0
3.154,1.5625,0,0,0,0,0
3.155,1.875,0,0,0,0,0
3.156,1.25,0,0,0,0,0
3.157,1.25,0,0,0,0,0
3.158,1.25,0,0,0,0,0
3.159,1.875,0,0,0,0,0
3.16,1.25,0,0,0,0,0
3.161,1.25,0,0,0,0,0
3.162,2.1875,0,0,0,0,0
3.163,1.875,0,0,0,0,0
3.164,1.875,0,0,0,0,0
3.165,1.875,0,0,0,0,0
3.166,2.1875,0,0,0,0,0
3.167,2.5,0,0,0,0,0
3.168,2.1875,0,0,0,0,0
3.169,2.5,0,0,0,0,0
3.17,2.1875,0,0,0,0,0
3.171,2.5,0,0,0,0,0
3.172,2.1875,0,0,0,0,0
3.173,1.875,0,0,0,0,0
3.174,1.5625,0,0,0,0,0
3.175,1.25,0,0,0,0,0
3.176,1.25,0,0,0,0,0
3.177,1.25,0,0,0,0,0
3.178,0.9375,0,0,0,0,0
3.179,1.25,0,0,0,0,0
3.18,1.5625,0,0,0,0,0
3.181,1.875,0,0,0,0,0
3.182,2.1875,0,0,0,0,0
3.183,2.5,0,0,0,0,0
3.184,1.875,0,0,0,0,0
3.185,1.875,0,0,0,0,0
3.186,2.1875,0,0,0,0,0
3.187,2.5,0,0,0,0,0
3.188,2.8125,0,0,0,0,0
3.189,2.5,0,0,0,0,0
3.19,2.5,0,0,0,0,0
3.191,2.5,0,0,0,0,0
3.192,2.8125,0,0,0,0,0
3.193,3.125,0,0,0,0,0
3.194,3.125,0,0,0,0,0
3.195,3.125,0,0,0,0,0
3.196,2.8125,0,0,0,0,0
3.197,2.5,0,0,0,0,0
3.198,2.8125,0,0,0,0,0
3.199,2.5,0,0,0,0,0
3.2,2.8125,0,0,0,0,0
3.201,2.5,0,0,0,0,0
3.202,2.8125,0,0,0,0,0
3.203,3.125,0,0,0,0,0
3.204,3.125,0,0,0,0,0
3.205,3.125,0,0,0,0,0
3.206,3.125,0,0,0,0,0
3.207,3.125,0,0,0,0,0
3.208,3.125,0,0,0,0,0
3.209,3.125,0,0,0,0,0
3.21,3.125,0,0,0,0,0
3.211,3.125,0,0,0,0,0
3.212,3.125,0,0,0,0,0
3.213,2.5,0,0,0,0,0
3.214,3.125,0,0,0,0,0
3.215,3.125,0,0,0,0,0
3.216,3.4375,0,0,0,0,0
3.217,3.125,0,0,0,0,0
3.218,3.4375,0,0,0,0,0
3.219,2.5,0,0,0,0,0
3.22,2.1875,0,0,0,0,0
3.221,2.5,0,0,0,0,0
3.222,2.8125,0,0,0,0,0
3.223,3.125,0,0,0,0,0
3.224,3.125,0,0,0,0,0
3.225,3.125,0,0,0,0,0
3.226,3.4375,0,0,0,0,0
3.227,3.75,0,0,0,0,0
3.228,3.75,0,0,0,0,0
3.229,3.75,0,0,0,0,0
3.23,3.4375,0,0,0,0,0
3.231,3.125,0,0,0,0,0
3.232,3.125,0,0,0,0,0
3.233,3.125,0,0,0,0,0
3.234,3.125,0,0,0,0,0
3.235,3.125,0,0,0,0,0
3.236,3.125,0,0,0,0,0
3.237,3.125,0,0,0,0,0
3.238,2.8125,0,0,0,0,0
3.239,2.5,0,0,0,0,0
3.24,2.8125,0,0,0,0,0
3.241,3.125,0,0,0,0,0
3.242,3.125,0,0,0,0,0
3.243,3.125,0,0,0,0,0
3.244,3.125,0,0,0,0,0
3.245,3.125,0,0,0,0,0
3.246,3.125,0,0,0,0,0
3.247,3.125,0,0,0,0,0
3.248,3.4375,0,0,0,0,0
3.249,3.75,0,0,0,0,0
3.25,3.75,0,0,0,0,0
3.251,3.75,0,0,0,0,0
3.252,3.75,0,0,0,0,0
3.253,3.75,0,0,0,0,0
3.254,3.75,0,0,0,0,0
3.255,3.75,0,0,0,0,0
3.256,3.75,0,0,0,0,0
3.257,3.125,0,0,0,0,0
3.258,3.4375,0,0,0,0,0
3.259,3.125,0,0,0,0,0
3.26,2.8125,0,0,0,0,0
3.261,3.125,0,0,0,0,0
3.262,3.4375,0,0,0,0,0
3.263,3.75,0,0,0,0,0
3.264,3.75,0,0,0,0,0
3.265,3.75,0,0,0,0,0
3.266,3.4375,0,0,0,0,0
3.267,3.75,0,0,0,0,0
3.268,2.5,0,0,0,0,0
3.269,1.875,0,0,0,0,0
3.27,1.875,0,0,0,0,0
3.271,1.875,0,0,0,0,0
3.272,1.875,0,0,0,0,0
3.273,1.875,0,0,0,0,0
3.274,1.875,0,0,0,0,0
3.275,1.875,0,0,0,0,0
3.276,1.875,0,0,0,0,0
3.277,1.875,0,0,0,0,0
3.278,1.875,0,0,0,0,0
3.279,1.875,0,0,0,0,0
3.28,2.5,0,0,0,0,0
3.281,2.5,0,0,0,0,0
3.282,2.5,0,0,0,0,0
3.283,2.5,0,0,0,0,0
3.284,2.1875,0,0,0,0,0
3.285,2.5,0,0,0,0,0
3.286,2.5,0,0,0,0,0
3.287,2.5,0,0,0,0,0
3.288,2.5,0,0,0,0,0
3.289,2.5,0,0,0,0,0
3.29,2.5,0,0,0,0,0
3.291,2.5,0,0,0,0,0
3.292,2.1875,0,0,0,0,0
3.293,1.875,0,0,0,0,0
3.294,2.1875,0,0,0,0,0
3.295,2.5,0,0,0,0,0
3.296,2.1875,0,0,0,0,0
3.297,1.875,0,0,0,0,0
3.298,1.875,0,0,0,0,0
3.299,1.875,0,0,0,0,0
3.3,1.5625,0,0,0,0,0
3.301,1.25,0,0,0,0,0
3.302,1.875,0,0,0,0,0
3.303,2.5,0,0,0,0,0
3.304,2.1875,0,0,0,0,0
3.305,1.875,0,0,0,0,0
3.306,2.5,0,0,0,0,0
3.307,2.5,0,0,0,0,0
3.308,2.8125,0,0,0,0,0
3.309,1.875,0,0,0,0,0
3.31,3.125,0,0,0,0,0
3.311,3.125,0,0,0,0,0
3.312,3.4375,0,0,0,0,0
3.313,3.125,0,0,0,0,0
3.314,3.125,0,0,0,0,0
3.315,3.125,0,0,0,0,0
3.316,4.0625,0,0,0,0,0
3.317,4.375,0,0,0,0,0
3.318,4.6875,0,0,0,0,0
3.319,5,0,0,0,0,0
3.32,4.6875,0,0,0,0,0
3.321,5,0,0,0,0,0
3.322,4.375,0,0,0,0,0
3.323,5,0,0,0,0,0
3.324,4.6875,0,0,0,0,0
3.325,4.375,0,0,0,0,0
3.326,4.0625,0,0,0,0,0
3.327,3.75,0,0,0,0,0
3.328,5,0,0,0,0,0
3.329,5,0,0,0,0,0
3.33,5,0,0,0,0,0
3.331,5,0,0,0,0,0
3.332,4.6875,0,0,0,0,0
3.333,4.375,0,0,0,0,0
3.334,4.0625,0,0,0,0,0
3.335,4.375,0,0,0,0,0
3.336,4.0625,0,0,0,0,0
3.337,4.375,0,0,0,0,0
3.338,4.375,0,0,0,0,0
3.339,4.375,0,0,0,0,0
3.34,4.0625,0,0,0,0,0
3.341,3.75,0,0,0,0,0
3.342,4.0625,0,0,0,0,0
3.343,4.375,0,0,0,0,0
3.344,4.6875,0,0,0,0,0
3.345,5.625,0,0,0,0,0
3.346,5.3125,0,0,0,0,0
3.347,4.375,0,0,0,0,0
3.348,5,0,0,0,0,0
3.349,5,0,0,0,0,0
3.35,5,0,0,0,0,0
3.351,5,0,0,0,0,0
3.352,5,0,0,0,0,0
3.353,5,0,0,0,0,0
3.354,5.3125,0,0,0,0,0
3.355,5.625,0,0,0,0,0
3.356,5.3125,0,0,0,0,0
3.357,5,0,0,0,0,0
3.358,5,0,0,0,0,0
3.359,5,0,0,0,0,0
3.36,4.375,0,0,0,0,0
3.361,4.375,0,0,0,0,0
3.362,4.375,0,0,0,0,0
3.363,5,0,0,0,0,0
3.364,5,0,0,0,0,0
3.365,4.375,0,0,0,0,0
3.366,4.6875,0,0,0,0,0
3.367,5,0,0,0,0,0
3.368,4.375,0,0,0,0,0
3.369,4.375,0,0,0,0,0
3.37,4.0625,0,0,0,0,0
3.371,3.75,0,0,0,0,0
3.372,3.75,0,0,0,0,0
3.373,3.125,0,0,0,0,0
3.374,3.125,0,0,0,0,0
3.375,3.125,0,0,0,0,0
3.376,3.125,0,0,0,0,0
3.377,3.125,0,0,0,0,0
3.378,2.5,0,0,0,0,0
3.379,2.5,0,0,0,0,0
3.38,2.8125,0,0,0,0,0
3.381,2.5,0,0,0,0,0
3.382,2.5,0,0,0,0,0
3.383,2.5,0,0,0,0,0
3.384,2.5,0,0,0,0,0
3.385,2.5,0,0,0,0,0
3.386,2.5,0,0,0,0,0
3.387,2.5,0,0,0,0,0
3.388,2.8125,0,0,0,0,0
3.389,2.5,0,0,0,0,0
3.39,2.1875,0,0,0,0,0
3.391,2.5,0,0,0,0,0
3.392,2.8125,0,0,0,0,0
3.393,3.125,0,0,0,0,0
3.394,2.5,0,0,0,0,0
3.395,2.5,0,0,0,0,0
3.396,2.1875,0,0,0,0,0
3.397,1.875,0,0,0,0,0
3.398,1.5625,0,0,0,0,0
3.399,1.25,0,0,0,0,0
3.4,1.25,0,0,0,0,0
3.401,1.25,0,0,0,0,0
3.402,1.25,0,0,0,0,0
3.403,1.25,0,0,0,0,0
3.404,1.25,0,0,0,0,0
3.405,1.25,0,0,0,0,0
3.406,1.5625,0,0,0,0,0
3.407,1.875,0,0,0,0,0
3.408,2.1875,0,0,0,0,0
3.409,2.5,0,0,0,0,0
3.41,2.1875,0,0,0,0,0
3.411,1.875,0,0,0,0,0
3.412,1.5625,0,0,0,0,0
3.413,1.25,0,0,0,0,0
3.414,1.25,0,0,0,0,0
3.415,1.25,0,0,0,0,0
3.416,1.5625,0,0,0,0,0
3.417,1.875,0,0,0,0,0
3.418,1.875,0,0,0,0,0
3.419,1.25,0,0,0,0,0
3.42,0.9375,0,0,0,0,0
3.421,0.625,0,0,0,0,0
3.422,0.625,0,0,0,0,0
3.423,0.625,0,0,0,0,0
3.424,0.625,0,0,0,0,0
3.425,0.625,0,0,0,0,0
3.426,0.9375,0,0,0,0,0
3.427,1.25,0,0,0,0,0
3.428,1.25,0,0,0,0,0
3.429,1.25,0,0,0,0,0
3.43,0.625,0,0,0,0,0
3.431,1.25,0,0,0,0,0
3.432,1.5625,0,0,0,0,0
3.433,1.25,0,0,0,0,0
3.434,1.5625,0,0,0,0,0
3.435,1.25,0,0,0,0,0
3.436,0.9375,0,0,0,0,0
3.437,0.625,0,0,0,0,0
3.438,0.625,0,0,0,0,0
3.439,0.625,0,0,0,0,0
3.44,0.3125,0,0,0,0,0
3.441,0,0,0,0,0,0
3.442,0,0,0,0,0,0
3.443,0,0,0,0,0,0
3.444,-0.625,0,0,0,0,0
3.445,0,0,0,0,0,0
3.446,0,0,0,0,0,0
3.447,0,0,0,0,0,0
3.448,0,0,0,0,0,0
3.449,-0.625,0,0,0,0,0
3.45,0,0,0,0,0,0
3.451,0,0,0,0,0,0
3.452,0,0,0,0,0,0
3.453,0,0,0,0,0,0
3.454,0.625,0,0,0,0,0
3.455,1.25,0,0,0,0,0
3.456,0.3125,0,0,0,0,0
3.457,0.625,0,0,0,0,0
3.458,0,0,0,0,0,0
3.459,0,0,0,0,0,0
3.46,0,0,0,0,0,0
3.461,0.625,0,0,0,0,0
3.462,0.625,0,0,0,0,0
3.463,0.625,0,0,0,0,0
3.464,0.3125,0,0,0,0,0
3.465,0,0,0,0,0,0
3.466,0.3125,0,0,0,0,0
3.467,1.25,0,0,0,0,0
3.468,1.25,0,0,0,0,0
3.469,1.25,0,0,0,0,0
3.47,0.9375,0,0,0,0,0
3.471,0.625,0,0,0,0,0
3.472,0.625,0,0,0,0,0
3.473,0.625,0,0,0,0,0
3.474,0.625,0,0,0,0,0
3.475,0.625,0,0,0,0,0
3.476,0.3125,0,0,0,0,0
3.477,0.625,0,0,0,0,0
3.478,0.3125,0,0,0,0,0
3.479,0.625,0,0,0,0,0
3.48,0.625,0,0,0,0,0
3.481,0.625,0,0,0,0,0
3.482,0.3125,0,0,0,0,0
3.483,0.625,1,0,0,0,0
3.484,0.625,0,0,0,0,0
3.485,0,0,0,0,0,0
3.486,0.3125,0,0,0,0,0
3.487,0.625,0,0,0,0,0
3.488,-0.3125,0,0,0,0,0
3.489,0,0,0,0,0,0
3.49,-0.3125,0,0,0,0,0
3.491,-0.625,0,0,0,0,0
3.492,0,0,0,0,0,0
3.493,0.625,0,0,0,0,0
3.494,1.5625,0,0,0,0,0
3.495,3.125,0,0,0,0,0
3.496,4.6875,0,0,0,0,0
3.497,5.625,0,0,0,0,0
3.498,5.3125,0,0,0,0,0
3.499,5.625,0,0,0,0,0
3.5,5.625,0,0,0,0,0
3.501,5.625,0,0,0,0,0
3.502,7.1875,0,0,0,0,0
3.503,8.75,0,0,0,0,0
3.504,9.6875,0,0,0,0,0
3.505,10,0,0,0,0,0
3.506,11.25,0,0,0,0,0
3.507,12.5,0,0,0,0,0
3.508,13.438,0,0,0,0,0
3.509,15,0,0,0,0,0
3.51,15.938,0,0,0,0,0
3.511,16.875,0,0,0,0,0
3.512,18.75,0,0,0,0,0
3.513,20.625,0,0,0,0,0
3.514,22.5,0,0,0,0,0
3.515,24.375,0,0,0,0,0
3.516,25.938,0,0,0,0,0
3.517,26.875,0,0,0,0,0
3.518,27.813,0,0,0,0,0
3.519,28.75,0,0,0,0,0
3.52,29.063,0,0,0,0,0
3.521,28.125,0,0,0,0,0
3.522,27.813,0,0,0,0,0
3.523,28.125,0,0,0,0,0
3.524,27.813,0,0,0,0,0
3.525,27.5,0,0,0,0,0
3.526,26.25,0,0,0,0,0
3.527,25,0,0,0,0,0
3.528,24.063,0,0,0,0,0
3.529,23.125,0,0,0,0,0
3.53,21.563,0,1,0,0,0
3.531,19.375,0,0,0,0,0
3.532,16.875,0,0,0,0,0
3.533,13.75,0,0,0,0,0
3.534,8.75,0,0,0,0,0
3.535,3.125,0,0,0,0,0
3.536,-0.625,0,0,0,0,0
3.537,-4.375,0,0,0,0,0
3.538,-7.8125,0,0,0,0,0
3.539,-10.625,0,0,0,0,0
3.54,-12.5,0,0,0,0,0
3.541,-13.75,0,0,0,0,0
3.542,-14.375,0,0,0,0,0
3.543,-14.375,0,0,0,0,0
3.544,-14.063,0,0,0,0,0
3.545,-12.5,0,0,0,0,0
3.546,-10.313,0,0,0,0,0
3.547,-8.75,0,0,0,0,0
3.548,-8.4375,0,0,0,0,0
3.549,-8.75,0,0,0,0,0
3.55,-9.0625,0,0,0,0,0
3.551,-8.75,0,0,0,0,0
3.552,-8.4375,0,0,0,0,0
3.553,-8.125,0,0,0,0,0
3.554,-7.8125,0,0,0,0,0
3.555,-6.875,0,0,0,0,0
3.556,-5.625,0,0,0,0,0
3.557,-5.625,0,0,0,0,0
3.558,-5.3125,0,0,0,0,0
3.559,-5,0,0,0,0,0
3.56,-4.375,0,0,0,0,0
3.561,-4.375,0,0,0,0,0
3.562,-4.0625,0,0,0,0,0
3.563,-3.75,0,0,0,0,0
3.564,-3.75,0,0,0,0,0
3.565,-4.375,0,0,0,0,0
3.566,-4.0625,0,0,0,0,0
3.567,-4.375,0,0,0,0,0
3.568,-4.6875,0,0,0,0,0
3.569,-5,0,0,0,0,0
3.57,-5,0,0,0,0,0
3.571,-5,0,0,0,0,0
3.572,-4.6875,0,0,0,0,0
3.573,-4.375,0,0,0,0,0
3.574,-4.6875,0,0,0,0,0
3.575,-5,0,0,0,0,0
3.576,-4.6875,0,0,0,0,0
3.577,-4.375,0,0,0,0,0
3.578,-4.375,0,0,0,0,0
3.579,-4.375,0,0,0,0,0
3.58,-4.375,0,0,0,0,0
3.581,-4.375,0,0,0,0,0
3.582,-4.375,0,0,0,0,0
3.583,-4.375,0,0,0,0,0
3.584,-4.375,0,0,0,0,0
3.585,-4.375,0,0,0,0,0
3.586,-4.6875,0,0,0,0,0
3.587,-4.375,0,0,0,0,0
3.588,-4.375,0,0,0,0,0
3.589,-4.375,0,0,0,0,0
3.59,-5,0,0,0,0,0
3.591,-5,0,0,0,0,0
3.592,-5.625,0,0,0,0,0
3.593,-5.625,0,0,0,0,0
3.594,-5.3125,0,0,0,0,0
3.595,-5.625,0,0,0,0,0
3.596,-5.625,0,0,0,0,0
3.597,-5.625,0,0,0,0,0
3.598,-5.9375,0,0,0,0,0
3.599,-5.625,0,0,0,0,0
3.6,-5.625,0,0,0,0,0
3.601,-5.625,0,0,0,0,0
3.602,-5.3125,0,0,0,0,0
3.603,-5,0,0,0,0,0
3.604,-5.9375,0,0,0,0,0
3.605,-5.625,0,0,0,0,0
3.606,-5.9375,0,0,0,0,0
3.607,-5.625,0,0,0,0,0
3.608,-5.625,0,0,0,0,0
3.609,-5.625,0,0,0,0,0
3.61,-5.625,0,0,0,0,0
3.611,-5.625,0,0,0,0,0
3.612,-5.625,0,0,0,0,0
3.613,-5.625,0,0,0,0,0
3.614,-5.625,0,0,0,0,0
3.615,-5.625,0,0,0,0,0
3.616,-5.9375,0,0,0,0,0
3.617,-5.625,0,0,0,0,0
3.618,-5.625,0,0,0,0,0
3.619,-5.625,0,0,0,0,0
3.62,-5,0,0,0,0,0
3.621,-5,0,0,0,0,0
3.622,-4.6875,0,0,0,0,0
3.623,-4.375,0,0,0,0,0
3.624,-3.75,0,0,0,0,0
3.625,-3.75,0,0,0,0,0
3.626,-3.4375,0,0,0,0,0
3.627,-3.125,0,0,0,0,0
3.628,-2.5,0,0,0,0,0
3.629,-2.5,0,0,0,0,0
3.63,-2.5,0,0,0,0,0
3.631,-2.5,0,0,0,0,0
3.632,-2.1875,0,0,0,0,0
3.633,-2.5,0,0,0,0,0
3.634,-1.5625,0,0,0,0,0
3.635,-1.25,0,0,0,0,0
3.636,-0.9375,0,0,0,0,0
3.637,-0.625,0,0,0,0,0
3.638,-0.625,0,0,0,0,0
3.639,-0.625,0,0,0,0,0
3.64,-0.625,0,0,0,0,0
3.641,-1.25,0,0,0,0,0
3.642,-0.625,0,0,0,0,0
3.643,-0.625,0,0,0,0,0
3.644,0,0,0,0,0,0
3.645,-0.625,0,0,0,0,0
3.646,0,0,0,0,0,0
3.647,0,0,0,0,0,0
3.648,0.625,0,0,0,0,0
3.649,0.625,0,0,0,0,0
3.65,1.25,0,0,0,0,0
3.651,1.875,0,0,0,0,0
3.652,2.1875,0,0,0,0,0
3.653,2.5,0,0,0,0,0
3.654,2.1875,0,0,0,0,0
3.655,1.875,0,0,0,0,0
3.656,1.875,0,0,0,0,0
3.657,1.875,0,0,1,0,0
3.658,1.875,0,0,0,0,0
3.659,1.875,0,0,0,0,0
3.66,1.875,0,0,0,0,0
3.661,1.875,0,0,0,0,0
3.662,1.5625,0,0,0,0,0
3.663,1.25,0,0,0,0,0
3.664,2.1875,0,0,0,0,0
3.665,2.5,0,0,0,0,0
3.666,2.1875,0,0,0,0,0
3.667,1.875,0,0,0,0,0
3.668,2.1875,0,0,0,0,0
3.669,2.5,0,0,0,0,0
3.67,2.5,0,0,0,0,0
3.671,2.5,0,0,0,0,0
3.672,1.875,0,0,0,0,0
3.673,2.5,0,0,0,0,0
3.674,2.5,0,0,0,0,0
3.675,1.875,0,0,0,0,0
3.676,1.875,0,0,0,0,0
3.677,1.875,0,0,0,0,0
3.678,2.5,0,0,0,0,0
3.679,1.875,0,0,0,0,0
3.68,1.875,0,0,0,0,0
3.681,1.875,0,0,0,0,0
3.682,1.5625,0,0,0,0,0
3.683,1.25,0,0,0,0,0
3.684,0.9375,0,0,0,0,0
3.685,0.625,0,0,0,0,0
3.686,0.3125,0,0,0,0,0
3.687,0,0,0,0,0,0
3.688,0,0,0,0,0,0
3.689,0.625,0,0,0,0,0
3.69,1.25,0,0,0,0,0
3.691,1.875,0,0,0,0,0
3.692,1.5625,0,0,0,0,0
3.693,1.875,0,0,0,0,0
3.694,1.875,0,0,0,0,0
3.695,1.875,0,0,0,0,0
3.696,1.875,0,0,0,0,0
3.697,1.875,0,0,0,0,0
3.698,1.25,0,0,0,0,0
3.699,0.625,0,0,0,0,0
3.7,1.875,0,0,0,0,0
3.701,1.875,0,0,0,0,0
3.702,1.875,0,0,0,0,0
3.703,1.875,0,0,0,0,0
3.704,2.8125,0,0,0,0,0
3.705,3.125,0,0,0,0,0
3.706,3.125,0,0,0,0,0
3.707,3.125,0,0,0,0,0
3.708,2.1875,0,0,0,0,0
3.709,1.875,0,0,0,0,0
3.71,1.5625,0,0,0,0,0
3.711,1.875,0,0,0,0,0
3.712,1.25,0,0,0,0,0
3.713,1.25,0,0,0,0,0
3.714,1.25,0,0,0,0,0
3.715,1.25,0,0,0,0,0
3.716,1.5625,0,0,0,0,0
3.717,1.875,0,0,0,0,0
3.718,1.875,0,0,0,0,0
3.719,1.875,0,0,0,0,0
3.72,2.1875,0,0,0,0,0
3.721,1.875,0,0,0,0,0
3.722,2.5,0,0,0,0,0
3.723,2.5,0,0,0,0,0
3.724,2.1875,0,0,0,0,0
3.725,1.25,0,0,0,0,0
3.726,1.875,0,0,0,0,0
3.727,1.875,0,0,0,0,0
3.728,2.1875,0,0,0,0,0
3.729,1.875,0,0,0,0,0
3.73,2.5,0,0,0,0,0
3.731,2.5,0,0,0,0,0
3.732,1.875,0,0,0,0,0
3.733,1.875,0,0,0,0,0
3.734,1.875,0,0,0,0,0
3.735,1.875,0,0,0,0,0
3.736,1.5625,0,0,0,0,0
3.737,1.25,0,0,0,0,0
3.738,0.9375,0,0,0,0,0
3.739,0.625,0,0,0,0,0
3.74,0,0,0,0,0,0
3.741,0,0,0,0,0,0
3.742,-0.3125,0,0,0,0,0
3.743,-0.625,0,0,0,0,0
3.744,0.625,0,0,0,0,0
3.745,0.625,0,0,0,0,0
3.746,0.3125,0,0,0,0,0
3.747,0,0,0,0,0,0
3.748,0.3125,0,0,0,0,0
3.749,0.625,0,0,0,0,0
3.75,0.625,0,0,0,0,0
3.751,0.625,0,0,0,0,0
3.752,0.9375,0,0,0,0,0
3.753,1.25,0,0,0,0,0
3.754,1.25,0,0,0,0,0
3.755,0.625,0,0,0,0,0
3.756,0.625,0,0,0,0,0
3.757,0.625,0,0,0,0,0
3.758,0.3125,0,0,0,0,0
3.759,0,0,0,0,0,0
3.76,-0.625,0,0,0,0,0
3.761,-1.25,0,0,0,0,0
3.762,-0.9375,0,0,0,0,0
3.763,-1.25,0,0,0,0,0
3.764,-1.25,0,0,0,0,0
3.765,-1.25,0,0,0,0,0
3.766,-1.25,0,0,0,0,0
3.767,-1.25,0,0,0,0,0
3.768,-1.875,0,0,0,0,0
3.769,-1.875,0,0,0,0,0
3.77,-1.875,0,0,0,0,0
3.771,-1.875,0,0,0,0,0
3.772,-1.5625,0,0,0,0,0
3.773,-1.25,0,0,0,0,0
3.774,-1.25,0,0,0,0,0
3.775,-1.25,0,0,0,0,0
3.776,-1.5625,0,0,0,0,0
3.777,-1.25,0,0,0,0,0
3.778,-1.5625,0,0,0,0,0
3.779,-1.875,0,0,0,0,0
3.78,-2.1875,0,0,0,0,0
3.781,-2.5,0,0,0,0,0
3.782,-2.1875,0,0,0,0,0
3.783,-1.875,0,0,0,0,0
3.784,-2.1875,0,0,0,0,0
3.785,-2.5,0,0,0,0,0
3.786,-2.8125,0,0,0,0,0
3.787,-3.125,0,0,0,0,0
3.788,-2.8125,0,0,0,0,0
3.789,-2.5,0,0,0,0,0
3.79,-2.8125,0,0,0,0,0
3.791,-2.5,0,0,0,0,0
3.792,-2.5,0,0,0,0,0
3.793,-2.5,0,0,0,0,0
3.794,-2.8125,0,0,0,1,0
3.795,-3.125,0,0,0,0,0
3.796,-2.8125,0,0,0,0,0
3.797,-2.5,0,0,0,0,0
3.798,-2.8125,0,0,0,0,0
3.799,-3.125,0,0,0,0,0
3.8,-3.125,0,0,0,0,0
3.801,-3.125,0,0,0,0,0
3.802,-3.4375,0,0,0,0,0
3.803,-3.75,0,0,0,0,0
3.804,-3.125,0,0,0,0,0
3.805,-3.75,0,0,0,0,0
3.806,-3.125,0,0,0,0,0
3.807,-3.125,0,0,0,0,0
3.808,-3.4375,0,0,0,0,0
3.809,-3.75,0,0,0,0,0
3.81,-3.4375,0,0,0,0,0
3.811,-3.75,0,0,0,0,0
3.812,-3.75,0,0,0,0,0
3.813,-3.125,0,0,0,0,0
3.814,-4.0625,0,0,0,0,0
3.815,-3.75,0,0,0,0,0
3.816,-3.125,0,0,0,0,0
3.817,-1.875,0,0,0,0,0
3.818,-2.8125,0,0,0,0,0
3.819,-2.5,0,0,0,0,0
3.82,-2.5,0,0,0,0,0
3.821,-2.5,0,0,0,0,0
3.822,-2.1875,0,0,0,0,0
3.823,-1.875,0,0,0,0,0
3.824,-2.1875,0,0,0,0,0
3.825,-2.5,0,0,0,0,0
3.826,-2.1875,0,0,0,0,0
3.827,-2.5,0,0,0,0,0
3.828,-2.5,0,0,0,0,0
3.829,-1.875,0,0,0,0,0
3.83,-2.1875,0,0,0,0,0
3.831,-1.875,0,0,0,0,0
3.832,-2.1875,0,0,0,0,0
3.833,-1.25,0,0,0,0,0
3.834,-1.875,0,0,0,0,0
3.835,-1.25,0,0,0,0,0
3.836,-0.625,0,0,0,0,0
3.837,-0.625,0,0,0,0,0
3.838,-0.625,0,0,0,0,0
3.839,-0.625,0,0,0,0,0
3.84,-0.3125,0,0,0,0,0
3.841,-0.625,0,0,0,0,0
3.842,-0.3125,0,0,0,0,0
3.843,0.625,0,0,0,0,0
3.844,0.625,0,0,0,0,0
3.845,0.625,0,0,0,0,0
3.846,0.3125,0,0,0,0,0
3.847,0,0,0,0,0,0
3.848,0.9375,0,0,0,0,0
3.849,1.25,0,0,0,0,0
3.85,1.5625,0,0,0,0,0
3.851,1.875,0,0,0,0,0
3.852,1.875,0,0,0,0,0
3.853,2.5,0,0,0,0,0
3.854,2.5,0,0,0,0,0
3.855,2.5,0,0,0,0,0
3.856,2.5,0,0,0,0,0
3.857,2.5,0,0,0,0,0
3.858,2.5,0,0,0,0,0
3.859,2.5,0,0,0,0,0
3.86,2.5,0,0,0,0,0
3.861,3.125,0,0,0,0,0
3.862,3.125,0,0,0,0,0
3.863,3.125,0,0,0,0,0
3.864,3.4375,0,0,0,0,0
3.865,3.125,0,0,0,0,0
3.866,2.5,0,0,0,0,0
3.867,3.125,0,0,0,0,0
3.868,3.125,0,0,0,0,0
3.869,2.5,0,0,0,0,0
3.87,3.125,0,0,0,0,0
3.871,2.5,0,0,0,0,0
3.872,2.1875,0,0,0,0,0
3.873,2.5,0,0,0,0,0
3.874,2.5,0,0,0,0,1
3.875,2.5,0,0,0,0,0
3.876,2.8125,0,0,0,0,0
3.877,3.125,0,0,0,0,0
3.878,3.125,0,0,0,0,0
3.879,3.125,0,0,0,0,0
3.88,3.125,0,0,0,0,0
3.881,3.125,0,0,0,0,0
3.882,3.125,0,0,0,0,0
3.883,3.125,0,0,0,0,0
3.884,2.5,0,0,0,0,0
3.885,3.125,0,0,0,0,0
3.886,2.5,0,0,0,0,0
3.887,2.5,0,0,0,0,0
3.888,3.125,0,0,0,0,0
3.889,3.125,0,0,0,0,0
3.89,3.125,0,0,0,0,0
3.891,3.75,0,0,0,0,0
3.892,3.75,0,0,0,0,0
3.893,3.75,0,0,0,0,0
3.894,3.125,0,0,0,0,0
3.895,2.5,0,0,0,0,0
3.896,2.5,0,0,0,0,0
3.897,2.5,0,0,0,0,0
3.898,2.5,0,0,0,0,0
3.899,2.5,0,0,0,0,0
3.9,3.125,0,0,0,0,0
3.901,3.125,0,0,0,0,0
3.902,3.125,0,0,0,0,0
3.903,3.125,0,0,0,0,0
3.904,3.4375,0,0,0,0,0
3.905,3.125,0,0,0,0,0
3.906,2.8125,0,0,0,0,0
3.907,2.5,0,0,0,0,0
3.908,2.5,0,0,0,0,0
3.909,2.5,0,0,0,0,0
3.91,2.5,0,0,0,0,0
3.911,2.5,0,0,0,0,0
3.912,2.1875,0,0,0,0,0
3.913,1.875,0,0,0,0,0
3.914,2.1875,0,0,0,0,0
3.915,2.5,0,0,0,0,0
3.916,2.8125,0,0,0,0,0
3.917,3.125,0,0,0,0,0
3.918,2.5,0,0,0,0,0
3.919,2.5,0,0,0,0,0
3.92,2.8125,0,0,0,0,0
3.921,3.125,0,0,0,0,0
3.922,2.8125,0,0,0,0,0
3.923,2.5,0,0,0,0,0
3.924,3.125,0,0,0,0,0
3.925,2.5,0,0,0,0,0
3.926,3.125,0,0,0,0,0
3.927,3.125,0,0,0,0,0
3.928,2.5,0,0,0,0,0
3.929,2.5,0,0,0,0,0
3.93,2.5,0,0,0,0,0
3.931,2.5,0,0,0,0,0
3.932,2.1875,0,0,0,0,0
3.933,1.875,0,0,0,0,0
3.934,2.1875,0,0,0,0,0
3.935,2.5,0,0,0,0,0
3.936,2.5,0,0,0,0,0
3.937,3.125,0,0,0,0,0
3.938,2.5,0,0,0,0,0
3.939,2.5,0,0,0,0,0
3.94,2.1875,0,0,0,0,0
3.941,1.875,0,0,0,0,0
3.942,1.875,0,0,0,0,0
3.943,1.875,0,0,0,0,0
3.944,2.1875,0,0,0,0,0
3.945,2.5,0,0,0,0,0
3.946,2.1875,0,0,0,0,0
3.947,2.5,0,0,0,0,0
3.948,2.5,0,0,0,0,0
3.949,2.5,0,0,0,0,0
3.95,2.5,0,0,0,0,0
3.951,1.875,0,0,0,0,0
3.952,2.1875,0,0,0,0,0
3.953,2.5,0,0,0,0,0
3.954,2.1875,0,0,0,0,0
3.955,1.875,0,0,0,0,0
3.956,2.1875,0,0,0,0,0
3.957,2.5,0,0,0,0,0
3.958,2.5,0,0,0,0,0
3.959,2.5,0,0,0,0,0
3.96,2.5,0,0,0,0,0
3.961,2.5,0,0,0,0,0
3.962,2.1875,0,0,0,0,0
3.963,1.875,0,0,0,0,0
3.964,1.875,0,0,0,0,0
3.965,1.875,0,0,0,0,0
3.966,1.875,0,0,0,0,0
3.967,2.5,0,0,0,0,0
3.968,2.1875,0,0,0,0,0
3.969,1.875,0,0,0,0,0
3.97,2.1875,0,0,0,0,0
3.971,2.5,0,0,0,0,0
3.972,2.5,0,0,0,0,0
3.973,2.5,0,0,0,0,0
3.974,2.5,0,0,0,0,0
3.975,2.5,0,0,0,0,0
3.976,2.1875,0,0,0,0,0
3.977,1.875,0,0,0,0,0
3.978,2.1875,0,0,0,0,0
3.979,1.875,0,0,0,0,0
3.98,1.875,0,0,0,0,0
3.981,1.875,0,0,0,0,0
3.982,2.5,0,0,0,0,0
3.983,1.875,0,0,0,0,0
3.984,1.875,0,0,0,0,0
3.985,1.875,0,0,0,0,0
3.986,1.5625,0,0,0,0,0
3.987,1.875,0,0,0,0,0
3.988,2.1875,0,0,0,0,0
3.989,2.5,0,0,0,0,0
3.99,2.5,0,0,0,0,0
3.991,2.5,0,0,0,0,0
3.992,3.125,0,0,0,0,0
3.993,3.125,0,0,0,0,0
3.994,3.125,0,0,0,0,0
3.995,3.75,0,0,0,0,0
3.996,3.125,0,0,0,0,0
3.997,3.125,0,0,0,0,0
3.998,3.125,0,0,0,0,0
3.999,3.125,0,0,0,0,0
4,2.5,0,0,0,0,0
4.001,1.875,0,0,0,0,0
4.002,1.25,0,0,0,0,0
4.003,1.25,0,0,0,0,0
4.004,1.875,0,0,0,0,0
4.005,1.875,0,0,0,0,0
4.006,2.8125,0,0,0,0,0
4.007,3.125,0,0,0,0,0
4.008,2.1875,0,0,0,0,0
4.009,2.5,0,0,0,0,0
4.01,2.5,0,0,0,0,0
4.011,2.5,0,0,0,0,0
4.012,2.5,0,0,0,0,0
4.013,2.5,0,0,0,0,0
4.014,2.8125,0,0,0,0,0
4.015,2.5,0,0,0,0,0
4.016,2.1875,0,0,0,0,0
4.017,2.5,0,0,0,0,0
4.018,2.8125,0,0,0,0,0
4.019,3.125,0,0,0,0,0
4.02,2.5,0,0,0,0,0
4.021,3.125,0,0,0,0,0
4.022,2.8125,0,0,0,0,0
4.023,2.5,0,0,0,0,0
4.024,2.8125,0,0,0,0,0
4.025,3.125,0,0,0,0,0
4.026,3.125,0,0,0,0,0
4.027,3.125,0,0,0,0,0
4.028,3.125,0,0,0,0,0
4.029,3.125,0,0,0,0,0
4.03,2.8125,0,0,0,0,0
4.031,2.5,0,0,0,0,0
4.032,2.8125,0,0,0,0,0
4.033,2.5,0,0,0,0,0
4.034,2.5,0,0,0,0,0
4.035,2.5,0,0,0,0,0
4.036,3.125,0,0,0,0,0
4.037,3.125,0,0,0,0,0
4.038,2.8125,0,0,0,0,0
4.039,3.125,0,0,0,0,0
4.04,3.125,0,0,0,0,0
4.041,3.75,0,0,0,0,0
4.042,3.125,0,0,0,0,0
4.043,3.125,0,0,0,0,0
4.044,3.125,0,0,0,0,0
4.045,3.125,0,0,0,0,0
4.046,2.8125,0,0,0,0,0
4.047,2.5,0,0,0,0,0
4.048,2.5,0,0,0,0,0
4.049,2.5,0,0,0,0,0
4.05,1.25,0,0,0,0,0
4.051,1.25,0,0,0,0,0
4.052,1.5625,0,0,0,0,0
4.053,1.875,0,0,0,0,0
4.054,2.1875,0,0,0,0,0
4.055,2.5,0,0,0,0,0
4.056,2.8125,0,0,0,0,0
4.057,3.125,0,0,0,0,0
4.058,2.8125,0,0,0,0,0
4.059,2.5,0,0,0,0,0
4.06,2.5,0,0,0,0,0
4.061,2.5,0,0,0,0,0
4.062,2.8125,0,0,0,0,0
4.063,1.875,0,0,0,0,0
4.064,2.1875,0,0,0,0,0
4.065,2.5,0,0,0,0,0
4.066,2.1875,0,0,0,0,0
4.067,1.875,0,0,0,0,0
4.068,1.875,0,0,0,0,0
4.069,1.875,0,0,0,0,0
4.07,1.5625,0,0,0,0,0
4.071,1.875,0,0,0,0,0
4.072,1.25,0,0,0,0,0
4.073,1.25,0,0,0,0,0
4.074,1.5625,0,0,0,0,0
4.075,1.875,0,0,0,0,0
4.076,2.1875,0,0,0,0,0
4.077,2.5,0,0,0,0,0
4.078,2.5,0,0,0,0,0
4.079,2.5,0,0,0,0,0
4.08,2.5,0,0,0,0,0
4.081,2.5,0,0,0,0,0
4.082,2.1875,0,0,0,0,0
4.083,1.875,0,0,0,0,0
4.084,2.1875,0,0,0,0,0
4.085,2.5,0,0,0,0,0
4.086,2.5,0,0,0,0,0
4.087,2.5,0,0,0,0,0
4.088,2.5,0,0,0,0,0
4.089,2.5,0,0,0,0,0
4.09,2.1875,0,0,0,0,0
4.091,1.875,0,0,0,0,0
4.092,1.5625,0,0,0,0,0
4.093,1.25,0,0,0,0,0
4.094,2.1875,0,0,0,0,0
4.095,2.5,0,0,0,0,0
4.096,2.8125,0,0,0,0,0
4.097,1.875,0,0,0,0,0
4.098,2.8125,0,0,0,0,0
4.099,2.5,0,0,0,0,0
4.1,2.8125,0,0,0,0,0
4.101,2.5,0,0,0,0,0
4.102,2.5,0,0,0,0,0
4.103,2.5,0,0,0,0,0
4.104,3.4375,0,0,0,0,0
4.105,3.75,0,0,0,0,0
4.106,3.4375,0,0,0,0,0
4.107,3.125,0,0,0,0,0
4.108,2.8125,0,0,0,0,0
4.109,3.125,0,0,0,0,0
4.11,2.8125,0,0,0,0,0
4.111,3.75,0,0,0,0,0
4.112,3.75,0,0,0,0,0
4.113,3.75,0,0,0,0,0
4.114,4.0625,0,0,0,0,0
4.115,4.375,0,0,0,0,0
4.116,5,0,0,0,0,0
4.117,4.375,0,0,0,0,0
4.118,4.0625,0,0,0,0,0
4.119,3.75,0,0,0,0,0
4.12,4.0625,0,0,0,0,0
4.121,4.375,0,0,0,0,0
4.122,4.0625,0,0,0,0,0
4.123,4.375,0,0,0,0,0
4.124,3.75,0,0,0,0,0
4.125,3.75,0,0,0,0,0
4.126,4.0625,0,0,0,0,0
4.127,4.375,0,0,0,0,0
4.128,4.0625,0,0,0,0,0
4.129,3.75,0,0,0,0,0
4.13,3.75,0,0,0,0,0
4.131,3.75,0,0,0,0,0
4.132,3.4375,0,0,0,0,0
4.133,3.75,0,0,0,0,0
4.134,4.375,0,0,0,0,0
4.135,4.375,0,0,0,0,0
4.136,5,0,0,0,0,0
4.137,5,0,0,0,0,0
4.138,4.6875,0,0,0,0,0
4.139,4.375,0,0,0,0,0
4.14,4.375,0,0,0,0,0
4.141,4.375,0,0,0,0,0
4.142,4.375,0,0,0,0,0
4.143,4.375,0,0,0,0,0
4.144,4.375,0,0,0,0,0
4.145,4.375,0,0,0,0,0
4.146,4.6875,0,0,0,0,0
4.147,5,0,0,0,0,0
4.148,4.375,0,0,0,0,0
4.149,4.375,0,0,0,0,0
4.15,4.0625,0,0,0,0,0
4.151,4.375,0,0,0,0,0
4.152,5,0,0,0,0,0
4.153,5,0,0,0,0,0
4.154,5.3125,0,0,0,0,0
4.155,5.625,0,0,0,0,0
4.156,4.6875,0,0,0,0,0
4.157,4.375,0,0,0,0,0
4.158,4.375,0,0,0,0,0
4.159,4.375,0,0,0,0,0
4.16,4.6875,0,0,0,0,0
4.161,4.375,0,0,0,0,0
4.162,4.375,0,0,0,0,0
4.163,4.375,0,0,0,0,0
4.164,4.375,0,0,0,0,0
4.165,4.375,0,0,0,0,0
4.166,3.4375,0,0,0,0,0
4.167,3.125,0,0,0,0,0
4.168,3.125,0,0,0,0,0
4.169,2.5,0,0,0,0,0
4.17,2.5,0,0,0,0,0
4.171,2.5,0,0,0,0,0
4.172,2.5,0,0,0,0,0
4.173,2.5,0,0,0,0,0
4.174,2.1875,0,0,0,0,0
4.175,1.875,0,0,0,0,0
4.176,2.1875,0,0,0,0,0
4.177,1.875,0,0,0,0,0
4.178,1.875,0,0,0,0,0
4.179,2.5,0,0,0,0,0
4.18,2.5,0,0,0,0,0
4.181,2.5,0,0,0,0,0
4.182,1.5625,0,0,0,0,0
4.183,1.25,0,0,0,0,0
4.184,1.25,0,0,0,0,0
4.185,1.25,0,0,0,0,0
4.186,1.25,0,0,0,0,0
4.187,1.25,0,0,0,0,0
4.188,0.9375,0,0,0,0,0
4.189,0.625,0,0,0,0,0
4.19,0.625,0,0,0,0,0
4.191,0.625,0,0,0,0,0
4.192,0.625,0,0,0,0,0
4.193,0.625,0,0,0,0,0
4.194,0.625,0,0,0,0,0
4.195,0.625,0,0,0,0,0
4.196,0.3125,0,0,0,0,0
4.197,0,0,0,0,0,0
4.198,0,0,0,0,0,0
4.199,0,0,0,0,0,0
4.2,0,0,0,0,0,0
4.201,0,0,0,0,0,0
4.202,0.3125,0,0,0,0,0
4.203,0.625,0,0,0,0,0
4.204,0.625,0,0,0,0,0
4.205,0.625,0,0,0,0,0
4.206,0.9375,0,0,0,0,0
4.207,0.625,0,0,0,0,0
4.208,0.3125,0,0,0,0,0
4.209,0,0,0,0,0,0
4.21,0.3125,0,0,0,0,0
4.211,0.625,0,0,0,0,0
4.212,0.625,0,0,0,0,0
4.213,0.625,0,0,0,0,0
4.214,0.625,0,0,0,0,0
4.215,0.625,0,0,0,0,0
4.216,0.625,0,0,0,0,0
4.217,0.625,0,0,0,0,0
4.218,-0.3125,0,0,0,0,0
4.219,0,0,0,0,0,0
4.22,0,0,0,0,0,0
4.221,-0.625,0,0,0,0,0
4.222,-0.3125,0,0,0,0,0
4.223,-0.625,0,0,0,0,0
4.224,-0.625,0,0,0,0,0
4.225,-0.625,0,0,0,0,0
4.226,-0.3125,0,0,0,0,0
4.227,0,0,0,0,0,0
4.228,0,0,0,0,0,0
4.229,0,0,0,0,0,0
4.23,0.3125,0,0,0,0,0
4.231,0.625,0,0,0,0,0
4.232,-0.3125,0,0,0,0,0
4.233,0,0,0,0,0,0
4.234,-0.3125,0,0,0,0,0
4.235,-0.625,0,0,0,0,0
4.236,-0.3125,0,0,0,0,0
4.237,-0.625,0,0,0,0,0
4.238,-0.3125,0,0,0,0,0
4.239,-0.625,0,0,0,0,0
4.24,-0.3125,0,0,0,0,0
4.241,0,0,0,0,0,0
4.242,0.3125,0,0,0,0,0
4.243,0.625,0,0,0,0,0
4.244,0,0,0,0,0,0
4.245,0.625,0,0,0,0,0
4.246,0.3125,0,0,0,0,0
4.247,0.625,0,0,0,0,0
4.248,0.3125,0,0,0,0,0
4.249,0.625,0,0,0,0,0
4.25,0.625,0,0,0,0,0
4.251,0.625,0,0,0,0,0
4.252,0.9375,0,0,0,0,0
4.253,1.25,0,0,0,0,0
4.254,1.25,0,0,0,0,0
4.255,1.875,0,0,0,0,0
4.256,1.875,0,0,0,0,0
4.257,1.875,0,0,0,0,0
4.258,1.5625,0,0,0,0,0
4.259,1.25,0,0,0,0,0
4.26,1.25,0,0,0,0,0
4.261,1.25,0,0,0,0,0
4.262,1.25,0,0,0,0,0
4.263,1.25,0,0,0,0,0
4.264,0.9375,0,0,0,0,0
4.265,1.25,1,0,0,0,0
4.266,0.9375,0,0,0,0,0
4.267,1.25,0,0,0,0,0
4.268,1.25,0,0,0,0,0
4.269,1.25,0,0,0,0,0
4.27,0.3125,0,0,0,0,0
4.271,0,0,0,0,0,0
4.272,0,0,0,0,0,0
4.273,-0.625,0,0,0,0,0
4.274,-0.3125,0,0,0,0,0
4.275,0,0,0,0,0,0
4.276,-1.25,0,0,0,0,0
4.277,-1.25,0,0,0,0,0
4.278,-0.625,0,0,0,0,0
4.279,0,0,0,0,0,0
4.28,0.9375,0,0,0,0,0
4.281,1.875,0,0,0,0,0
4.282,2.5,0,0,0,0,0
4.283,3.75,0,0,0,0,0
4.284,4.6875,0,0,0,0,0
4.285,5,0,0,0,0,0
4.286,5,0,0,0,0,0
4.287,5.625,0,0,0,0,0
4.288,6.5625,0,0,0,0,0
4.289,7.5,0,0,0,0,0
4.29,8.125,0,0,0,0,0
4.291,8.75,0,0,0,0,0
4.292,9.6875,0,0,0,0,0
4.293,10,0,0,0,0,0
4.294,10.938,0,0,0,0,0
4.295,11.875,0,0,0,0,0
4.296,12.813,0,0,0,0,0
4.297,14.375,0,0,0,0,0
4.298,16.25,0,0,0,0,0
4.299,18.125,0,0,0,0,0
4.3,20.313,0,0,0,0,0
4.301,22.5,0,0,0,0,0
4.302,24.063,0,1,0,0,0
4.303,25.625,0,0,0,0,0
4.304,26.563,0,0,0,0,0
4.305,26.875,0,0,0,0,0
4.306,27.188,0,0,0,0,0
4.307,27.5,0,0,0,0,0
4.308,28.125,0,0,0,0,0
4.309,27.5,0,0,0,0,0
4.31,26.563,0,0,0,0,0
4.311,26.25,0,0,0,0,0
4.312,24.688,0,0,0,0,0
4.313,23.125,0,0,0,0,0
4.314,21.875,0,0,0,0,0
4.315,20.625,0,0,0,0,0
4.316,19.063,0,0,0,0,0
4.317,17.5,0,0,0,0,0
4.318,16.25,0,0,0,0,0
4.319,14.375,0,0,0,0,0
4.32,10,0,0,0,0,0
4.321,5,0,0,0,0,0
4.322,0.625,0,0,0,0,0
4.323,-4.375,0,0,0,0,0
4.324,-7.5,0,0,0,0,0
4.325,-10.625,0,0,0,0,0
4.326,-12.813,0,0,0,0,0
4.327,-14.375,0,0,0,0,0
4.328,-15.313,0,0,0,0,0
4.329,-15.625,0,0,0,0,0
4.33,-15,0,0,0,0,0
4.331,-13.75,0,0,0,0,0
4.332,-13.125,0,0,0,0,0
4.333,-11.25,0,0,0,0,0
4.334,-9.375,0,0,0,0,0
4.335,-8.125,0,0,0,0,0
4.336,-7.5,0,0,0,0,0
4.337,-7.5,0,0,0,0,0
4.338,-7.1875,0,0,0,0,0
4.339,-6.25,0,0,0,0,0
4.34,-5.625,0,0,0,0,0
4.341,-5,0,0,0,0,0
4.342,-4.6875,0,0,0,0,0
4.343,-3.75,0,0,0,0,0
4.344,-2.5,0,0,0,0,0
4.345,-2.5,0,0,0,0,0
4.346,-2.1875,0,0,0,0,0
4.347,-1.875,0,0,0,0,0
4.348,-1.5625,0,0,0,0,0
4.349,-1.875,0,0,0,0,0
4.35,-1.875,0,0,0,0,0
4.351,-1.875,0,0,0,0,0
4.352,-1.875,0,0,0,0,0
4.353,-2.5,0,0,0,0,0
4.354,-2.1875,0,0,0,0,0
4.355,-2.5,0,0,0,0,0
4.356,-2.5,0,0,0,0,0
4.357,-2.5,0,0,0,0,0
4.358,-2.1875,0,0,0,0,0
4.359,-1.875,0,0,0,0,0
4.36,-1.875,0,0,0,0,0
4.361,-1.875,0,0,0,0,0
4.362,-1.875,0,0,0,0,0
4.363,-1.875,0,0,0,0,0
4.364,-1.875,0,0,0,0,0
4.365,-1.875,0,0,0,0,0
4.366,-2.1875,0,0,0,0,0
4.367,-2.5,0,0,0,0,0
4.368,-3.125,0,0,0,0,0
4.369,-3.75,0,0,0,0,0
4.37,-3.4375,0,0,0,0,0
4.371,-3.125,0,0,0,0,0
4.372,-3.125,0,0,0,0,0
4.373,-3.125,0,0,0,0,0
4.374,-4.375,0,0,0,0,0
4.375,-5,0,0,0,0,0
4.376,-5,0,0,0,0,0
4.377,-5,0,0,0,0,0
4.378,-5,0,0,0,0,0
4.379,-4.375,0,0,0,0,0
4.38,-5,0,0,0,0,0
4.381,-5,0,0,0,0,0
4.382,-4.6875,0,0,0,0,0
4.383,-5,0,0,0,0,0
4.384,-4.6875,0,0,0,0,0
4.385,-4.375,0,0,0,0,0
4.386,-5,0,0,0,0,0
4.387,-5,0,0,0,0,0
4.388,-5,0,0,0,0,0
4.389,-5,0,0,0,0,0
4.39,-4.6875,0,0,0,0,0
4.391,-4.375,0,0,0,0,0
4.392,-5.3125,0,0,0,0,0
4.393,-5,0,0,0,0,0
4.394,-5.625,0,0,0,0,0
4.395,-5.625,0,0,0,0,0
4.396,-5.9375,0,0,0,0,0
4.397,-6.25,0,0,0,0,0
4.398,-5.9375,0,0,0,0,0
4.399,-5.625,0,0,0,0,0
4.4,-5.625,0,0,0,0,0
4.401,-5.625,0,0,0,0,0
4.402,-5.625,0,0,0,0,0
4.403,-5.625,0,0,0,0,0
4.404,-5.3125,0,0,0,0,0
4.405,-4.375,0,0,0,0,0
4.406,-4.375,0,0,0,0,0
4.407,-4.375,0,0,0,0,0
4.408,-4.0625,0,0,0,0,0
4.409,-4.375,0,0,0,0,0
4.41,-4.375,0,0,0,0,0
4.411,-4.375,0,0,0,0,0
4.412,-3.75,0,0,0,0,0
4.413,-3.75,0,0,0,0,0
4.414,-3.75,0,0,0,0,0
4.415,-3.75,0,0,0,0,0
4.416,-3.4375,0,0,0,0,0
4.417,-3.75,0,0,0,0,0
4.418,-3.75,0,0,0,0,0
4.419,-3.75,0,0,0,0,0
4.42,-3.125,0,0,0,0,0
4.421,-3.125,0,0,0,0,0
4.422,-2.1875,0,0,0,0,0
4.423,-1.875,0,0,0,0,0
4.424,-1.875,0,0,0,0,0
4.425,-1.875,0,0,0,0,0
4.426,-2.1875,0,0,0,0,0
4.427,-2.5,0,0,0,0,0
4.428,-1.25,0,0,0,0,0
4.429,-0.625,0,0,0,0,0
4.43,-0.3125,0,0,0,0,0
4.431,-0.625,0,0,0,0,0
4.432,0,0,0,0,0,0
4.433,-0.625,0,0,0,0,0
4.434,0.3125,0,0,0,0,0
4.435,0.625,0,0,0,0,0
4.436,1.25,0,0,0,0,0
4.437,1.25,0,0,0,0,0
4.438,1.25,0,0,0,0,0
4.439,1.25,0,0,0,0,0
4.44,1.25,0,0,0,0,0
4.441,1.25,0,0,0,0,0
4.442,1.25,0,0,0,0,0
4.443,1.25,0,0,0,0,0
4.444,1.25,0,0,0,0,0
4.445,1.25,0,0,1,0,0
4.446,0.9375,0,0,0,0,0
4.447,0.625,0,0,0,0,0
4.448,0.3125,0,0,0,0,0
4.449,0,0,0,0,0,0
4.45,0.3125,0,0,0,0,0
4.451,0.625,0,0,0,0,0
4.452,1.25,0,0,0,0,0
4.453,1.25,0,0,0,0,0
4.454,1.25,0,0,0,0,0
4.455,1.25,0,0,0,0,0
4.456,1.25,0,0,0,0,0
4.457,1.25,0,0,0,0,0
4.458,1.5625,0,0,0,0,0
4.459,1.875,0,0,0,0,0
4.46,0.9375,0,0,0,0,0
4.461,1.25,0,0,0,0,0
4.462,1.875,0,0,0,0,0
4.463,1.875,0,0,0,0,0
4.464,1.875,0,0,0,0,0
4.465,1.875,0,0,0,0,0
4.466,2.8125,0,0,0,0,0
4.467,2.5,0,0,0,0,0
4.468,2.5,0,0,0,0,0
4.469,2.5,0,0,0,0,0
4.47,2.1875,0,0,0,0,0
4.471,1.875,0,0,0,0,0
4.472,1.25,0,0,0,0,0
4.473,0.625,0,0,0,0,0
4.474,0.625,0,0,0,0,0
4.475,0.625,0,0,0,0,0
4.476,0.3125,0,0,0,0,0
4.477,0.625,0,0,0,0,0
4.478,0.9375,0,0,0,0,0
4.479,1.25,0,0,0,0,0
4.48,0.625,0,0,0,0,0
4.481,0.625,0,0,0,0,0
4.482,0.625,0,0,0,0,0
4.483,0.625,0,0,0,0,0
4.484,0.625,0,0,0,0,0
4.485,0.625,0,0,0,0,0
4.486,0.625,0,0,0,0,0
4.487,0.625,0,0,0,0,0
4.488,1.25,0,0,0,0,0
4.489,0.625,0,0,0,0,0
4.49,0.3125,0,0,0,0,0
4.491,0,0,0,0,0,0
4.492,0.625,0,0,0,0,0
4.493,0.625,0,0,0,0,0
4.494,0.625,0,0,0,0,0
4.495,0.625,0,0,0,0,0
4.496,0,0,0,0,0,0
4.497,0,0,0,0,0,0
4.498,0,0,0,0,0,0
4.499,0.625,0,0,0,0,0
4.5,-0.3125,0,0,0,0,0
4.501,-0.625,0,0,0,0,0
4.502,-0.625,0,0,0,0,0
4.503,-0.625,0,0,0,0,0
4.504,-0.3125,0,0,0,0,0
4.505,0,0,0,0,0,0
4.506,0,0,0,0,0,0
4.507,0,0,0,0,0,0
4.508,0,0,0,0,0,0
4.509,-0.625,0,0,0,0,0
4.51,0,0,0,0,0,0
4.511,0,0,0,0,0,0
4.512,0.3125,0,0,0,0,0
4.513,0,0,0,0,0,0
4.514,0.625,0,0,0,0,0
4.515,0.625,0,0,0,0,0
4.516,0.625,0,0,0,0,0
4.517,0,0,0,0,0,0
4.518,0.9375,0,0,0,0,0
4.519,1.25,0,0,0,0,0
4.52,0.9375,0,0,0,0,0
4.521,1.25,0,0,0,0,0
4.522,1.25,0,0,0,0,0
4.523,1.25,0,0,0,0,0
4.524,0.9375,0,0,0,0,0
4.525,0.625,0,0,0,0,0
4.526,0.9375,0,0,0,0,0
4.527,1.25,0,0,0,0,0
4.528,0.625,0,0,0,0,0
4.529,0.625,0,0,0,0,0
4.53,0.625,0,0,0,0,0
4.531,0.625,0,0,0,0,0
4.532,1.25,0,0,0,0,0
4.533,0.625,0,0,0,0,0
4.534,0.625,0,0,0,0,0
4.535,0.625,0,0,0,0,0
4.536,0.3125,0,0,0,0,0
4.537,0,0,0,0,0,0
4.538,-0.3125,0,0,0,0,0
4.539,-0.625,0,0,0,0,0
4.54,-0.9375,0,0,0,0,0
4.541,-1.25,0,0,0,0,0
4.542,-0.9375,0,0,0,0,0
4.543,-1.25,0,0,0,0,0
4.544,-1.25,0,0,0,0,0
4.545,-1.25,0,0,0,0,0
4.546,-1.25,0,0,0,0,0
4.547,-1.25,0,0,0,0,0
4.548,-0.9375,0,0,0,0,0
4.549,-0.625,0,0,0,0,0
4.55,-0.625,0,0,0,0,0
4.551,-1.25,0,0,0,0,0
4.552,-1.5625,0,0,0,0,0
4.553,-1.875,0,0,0,0,0
4.554,-1.5625,0,0,0,0,0
4.555,-1.25,0,0,0,0,0
4.556,-1.875,0,0,0,0,0
4.557,-1.875,0,0,0,0,0
4.558,-2.1875,0,0,0,0,0
4.559,-2.5,0,0,0,0,0
4.56,-2.5,0,0,0,0,0
4.561,-2.5,0,0,0,0,0
4.562,-2.1875,0,0,0,0,0
4.563,-1.875,0,0,0,0,0
4.564,-2.5,0,0,0,0,0
4.565,-2.5,0,0,0,0,0
4.566,-2.5,0,0,0,0,0
4.567,-2.5,0,0,0,0,0
4.568,-2.5,0,0,0,0,0
4.569,-2.5,0,0,0,0,0
4.57,-2.5,0,0,0,0,0
4.571,-2.5,0,0,0,0,0
4.572,-2.5,0,0,0,0,0
4.573,-2.5,0,0,0,0,0
4.574,-2.8125,0,0,0,0,0
4.575,-3.125,0,0,0,0,0
4.576,-3.125,0,0,0,0,0
4.577,-3.125,0,0,0,0,0
4.578,-3.4375,0,0,0,0,0
4.579,-3.125,0,0,0,0,0
4.58,-2.8125,0,0,0,0,0
4.581,-2.5,0,0,0,0,0
4.582,-3.125,0,0,0,0,0
4.583,-3.75,0,0,0,0,0
4.584,-3.75,0,0,0,0,0
4.585,-3.75,0,0,0,0,0
4.586,-3.75,0,0,0,0,0
4.587,-3.75,0,0,0,0,0
4.588,-3.75,0,0,0,0,0
4.589,-3.75,0,0,0,0,0
4.59,-4.0625,0,0,0,0,0
4.591,-4.375,0,0,0,0,0
4.592,-4.0625,0,0,0,0,0
4.593,-5,0,0,0,0,0
4.594,-4.0625,0,0,0,0,0
4.595,-3.75,0,0,0,0,0
4.596,-4.0625,0,0,0,0,0
4.597,-4.375,0,0,0,0,0
4.598,-3.75,0,0,0,1,0
4.599,-3.75,0,0,0,0,0
4.6,-3.75,0,0,0,0,0
4.601,-3.125,0,0,0,0,0
4.602,-4.0625,0,0,0,0,0
4.603,-3.75,0,0,0,0,0
4.604,-3.4375,0,0,0,0,0
4.605,-2.5,0,0,0,0,0
4.606,-2.8125,0,0,0,0,0
4.607,-1.875,0,0,0,0,0
4.608,-2.1875,0,0,0,0,0
4.609,-2.5,0,0,0,0,0
4.61,-2.8125,0,0,0,0,0
4.611,-3.125,0,0,0,0,0
4.612,-3.125,0,0,0,0,0
4.613,-3.125,0,0,0,0,0
4.614,-2.5,0,0,0,0,0
4.615,-2.5,0,0,0,0,0
4.616,-2.5,0,0,0,0,0
4.617,-1.875,0,0,0,0,0
4.618,-1.875,0,0,0,0,0
4.619,-1.25,0,0,0,0,0
4.62,-1.5625,0,0,0,0,0
4.621,-0.625,0,0,0,0,0
4.622,-1.5625,0,0,0,0,0
4.623,-1.25,0,0,0,0,0
4.624,-0.625,0,0,0,0,0
4.625,-0.625,0,0,0,0,0
4.626,-0.9375,0,0,0,0,0
4.627,-1.25,0,0,0,0,0
4.628,-0.3125,0,0,0,0,0
4.629,0,0,0,0,0,0
4.63,0,0,0,0,0,0
4.631,0.625,0,0,0,0,0
4.632,0.625,0,0,0,0,0
4.633,0.625,0,0,0,0,0
4.634,0.3125,0,0,0,0,0
4.635,0,0,0,0,0,0
4.636,0.625,0,0,0,0,0
4.637,0.625,0,0,0,0,0
4.638,0.9375,0,0,0,0,0
4.639,1.25,0,0,0,0,0
4.64,0.9375,0,0,0,0,0
4.641,1.25,0,0,0,0,0
4.642,1.875,0,0,0,0,0
4.643,2.5,0,0,0,0,0
4.644,2.5,0,0,0,0,0
4.645,2.5,0,0,0,0,0
4.646,2.5,0,0,0,0,0
4.647,2.5,0,0,0,0,0
4.648,2.1875,0,0,0,0,0
4.649,2.5,0,0,0,0,0
4.65,2.8125,0,0,0,0,0
4.651,3.125,0,0,0,0,0
4.652,3.75,0,0,0,0,0
4.653,3.75,0,0,0,0,0
4.654,2.8125,0,0,0,0,0
4.655,3.125,0,0,0,0,0
4.656,3.4375,0,0,0,0,0
4.657,3.125,0,0,0,0,0
4.658,3.75,0,0,0,0,0
4.659,3.125,0,0,0,0,0
4.66,2.8125,0,0,0,0,0
4.661,3.125,0,0,0,0,0
4.662,3.4375,0,0,0,0,0
4.663,3.75,0,0,0,0,0
4.664,3.4375,0,0,0,0,0
4.665,3.125,0,0,0,0,0
4.666,3.4375,0,0,0,0,0
4.667,3.75,0,0,0,0,0
4.668,3.75,0,0,0,0,0
4.669,3.75,0,0,0,0,0
4.67,3.75,0,0,0,0,0
4.671,3.75,0,0,0,0,0
4.672,2.8125,0,0,0,0,1
4.673,3.125,0,0,0,0,0
4.674,2.5,0,0,0,0,0
4.675,2.5,0,0,0,0,0
4.676,3.75,0,0,0,0,0
4.677,4.375,0,0,0,0,0
4.678,3.75,0,0,0,0,0
4.679,3.75,0,0,0,0,0
4.68,3.4375,0,0,0,0,0
4.681,3.125,0,0,0,0,0
4.682,3.125,0,0,0,0,0
4.683,3.125,0,0,0,0,0
4.684,3.4375,0,0,0,0,0
4.685,3.75,0,0,0,0,0
4.686,3.4375,0,0,0,0,0
4.687,3.125,0,0,0,0,0
4.688,3.4375,0,0,0,0,0
4.689,3.125,0,0,0,0,0
4.69,3.125,0,0,0,0,0
4.691,3.125,0,0,0,0,0
4.692,3.4375,0,0,0,0,0
4.693,3.125,0,0,0,0,0
4.694,2.8125,0,0,0,0,0
4.695,2.5,0,0,0,0,0
4.696,2.5,0,0,0,0,0
4.697,2.5,0,0,0,0,0
4.698,2.5,0,0,0,0,0
4.699,2.5,0,0,0,0,0
4.7,2.8125,0,0,0,0,0
4.701,3.125,0,0,0,0,0
4.702,3.125,0,0,0,0,0
4.703,3.125,0,0,0,0,0
4.704,3.125,0,0,0,0,0
4.705,3.125,0,0,0,0,0
4.706,2.5,0,0,0,0,0
4.707,2.5,0,0,0,0,0
4.708,2.5,0,0,0,0,0
4.709,2.5,0,0,0,0,0
4.71,2.5,0,0,0,0,0
4.711,2.5,0,0,0,0,0
4.712,3.125,0,0,0,0,0
4.713,2.5,0,0,0,0,0
4.714,3.4375,0,0,0,0,0
4.715,3.75,0,0,0,0,0
4.716,2.8125,0,0,0,0,0
4.717,2.5,0,0,0,0,0
4.718,2.5,0,0,0,0,0
4.719,2.5,0,0,0,0,0
4.72,2.1875,0,0,0,0,0
4.721,1.875,0,0,0,0,0
4.722,2.1875,0,0,0,0,0
4.723,2.5,0,0,0,0,0
4.724,2.5,0,0,0,0,0
4.725,3.125,0,0,0,0,0
4.726,2.8125,0,0,0,0,0
4.727,3.125,0,0,0,0,0
4.728,2.8125,0,0,0,0,0
4.729,2.5,0,0,0,0,0
4.73,2.5,0,0,0,0,0
4.731,2.5,0,0,0,0,0
4.732,2.5,0,0,0,0,0
4.733,2.5,0,0,0,0,0
4.734,2.1875,0,0,0,0,0
4.735,2.5,0,0,0,0,0
4.736,2.1875,0,0,0,0,0
4.737,1.875,0,0,0,0,0
4.738,2.1875,0,0,0,0,0
4.739,1.875,0,0,0,0,0
4.74,2.1875,0,0,0,0,0
4.741,2.5,0,0,0,0,0
4.742,2.5,0,0,0,0,0
4.743,2.5,0,0,0,0,0
4.744,2.8125,0,0,0,0,0
4.745,3.125,0,0,0,0,0
4.746,3.125,0,0,0,0,0
4.747,3.125,0,0,0,0,0
4.748,2.8125,0,0,0,0,0
4.749,2.5,0,0,0,0,0
4.75,2.5,0,0,0,0,0
4.751,2.5,0,0,0,0,0
4.752,2.5,0,0,0,0,0
4.753,2.5,0,0,0,0,0
4.754,2.1875,0,0,0,0,0
4.755,2.5,0,0,0,0,0
4.756,2.5,0,0,0,0,0
4.757,2.5,0,0,0,0,0
4.758,2.8125,0,0,0,0,0
4.759,3.125,0,0,0,0,0
4.76,2.5,0,0,0,0,0
4.761,1.875,0,0,0,0,0
4.762,1.5625,0,0,0,0,0
4.763,1.25,0,0,0,0,0
4.764,1.5625,0,0,0,0,0
4.765,1.875,0,0,0,0,0
4.766,2.5,0,0,0,0,0
4.767,2.5,0,0,0,0,0
4.768,2.5,0,0,0,0,0
4.769,2.5,0,0,0,0,0
4.77,3.4375,0,0,0,0,0
4.771,3.125,0,0,0,0,0
4.772,2.8125,0,0,0,0,0
4.773,2.5,0,0,0,0,0
4.774,2.1875,0,0,0,0,0
4.775,2.5,0,0,0,0,0
4.776,2.5,0,0,0,0,0
4.777,2.5,0,0,0,0,0
4.778,2.1875,0,0,0,0,0
4.779,1.875,0,0,0,0,0
4.78,2.5,0,0,0,0,0
4.781,2.5,0,0,0,0,0
4.782,2.5,0,0,0,0,0
4.783,3.125,0,0,0,0,0
4.784,2.5,0,0,0,0,0
4.785,2.5,0,0,0,0,0
4.786,2.5,0,0,0,0,0
4.787,2.5,0,0,0,0,0
4.788,2.1875,0,0,0,0,0
4.789,1.875,0,0,0,0,0
4.79,1.875,0,0,0,0,0
4.791,2.5,0,0,0,0,0
4.792,2.8125,0,0,0,0,0
4.793,2.5,0,0,0,0,0
4.794,3.125,0,0,0,0,0
4.795,3.125,0,0,0,0,0
4.796,2.5,0,0,0,0,0
4.797,3.125,0,0,0,0,0
4.798,2.8125,0,0,0,0,0
4.799,2.5,0,0,0,0,0
4.8,2.5,0,0,0,0,0
4.801,2.5,0,0,0,0,0
4.802,2.8125,0,0,0,0,0
4.803,2.5,0,0,0,0,0
4.804,2.5,0,0,0,0,0
4.805,3.125,0,0,0,0,0
4.806,2.8125,0,0,0,0,0
4.807,2.5,0,0,0,0,0
4.808,1.875,0,0,0,0,0
4.809,2.5,0,0,0,0,0
4.81,2.1875,0,0,0,0,0
4.811,1.875,0,0,0,0,0
4.812,1.875,0,0,0,0,0
4.813,1.875,0,0,0,0,0
4.814,2.1875,0,0,0,0,0
4.815,2.5,0,0,0,0,0
4.816,2.5,0,0,0,0,0
4.817,2.5,0,0,0,0,0
4.818,2.5,0,0,0,0,0
4.819,2.5,0,0,0,0,0
4.82,3.125,0,0,0,0,0
4.821,3.125,0,0,0,0,0
4.822,2.8125,0,0,0,0,0
4.823,2.5,0,0,0,0,0
4.824,2.8125,0,0,0,0,0
4.825,2.5,0,0,0,0,0
4.826,1.875,0,0,0,0,0
4.827,1.875,0,0,0,0,0
4.828,1.5625,0,0,0,0,0
4.829,1.875,0,0,0,0,0
4.83,1.5625,0,0,0,0,0
4.831,1.875,0,0,0,0,0
4.832,1.875,0,0,0,0,0
4.833,1.875,0,0,0,0,0
4.834,1.875,0,0,0,0,0
4.835,1.875,0,0,0,0,0
4.836,1.875,0,0,0,0,0
4.837,1.875,0,0,0,0,0
4.838,1.25,0,0,0,0,0
4.839,1.875,0,0,0,0,0
4.84,1.875,0,0,0,0,0
4.841,1.875,0,0,0,0,0
4.842,1.875,0,0,0,0,0
4.843,1.875,0,0,0,0,0
4.844,1.875,0,0,0,0,0
4.845,1.875,0,0,0,0,0
4.846,2.1875,0,0,0,0,0
4.847,2.5,0,0,0,0,0
4.848,2.1875,0,0,0,0,0
4.849,1.875,0,0,0,0,0
4.85,2.8125,0,0,0,0,0
4.851,2.5,0,0,0,0,0
4.852,2.8125,0,0,0,0,0
4.853,3.125,0,0,0,0,0
4.854,3.125,0,0,0,0,0
4.855,3.125,0,0,0,0,0
4.856,3.125,0,0,0,0,0
4.857,3.125,0,0,0,0,0
4.858,2.8125,0,0,0,0,0
4.859,3.125,0,0,0,0,0
4.86,2.5,0,0,0,0,0
4.861,3.125,0,0,0,0,0
4.862,3.125,0,0,0,0,0
4.863,3.125,0,0,0,0,0
4.864,3.125,0,0,0,0,0
4.865,3.125,0,0,0,0,0
4.866,2.8125,0,0,0,0,0
4.867,2.5,0,0,0,0,0
4.868,2.5,0,0,0,0,0
4.869,2.5,0,0,0,0,0
4.87,2.1875,0,0,0,0,0
4.871,1.875,0,0,0,0,0
4.872,1.875,0,0,0,0,0
4.873,1.875,0,0,0,0,0
4.874,1.5625,0,0,0,0,0
4.875,1.25,0,0,0,0,0
4.876,1.5625,0,0,0,0,0
4.877,1.875,0,0,0,0,0
4.878,1.875,0,0,0,0,0
4.879,1.875,0,0,0,0,0
4.88,1.875,0,0,0,0,0
4.881,1.875,0,0,0,0,0
4.882,1.25,0,0,0,0,0
4.883,1.25,0,0,0,0,0
4.884,1.5625,0,0,0,0,0
4.885,2.5,0,0,0,0,0
4.886,1.875,0,0,0,0,0
4.887,2.5,0,0,0,0,0
4.888,1.875,0,0,0,0,0
4.889,2.5,0,0,0,0,0
4.89,2.1875,0,0,0,0,0
4.891,1.875,0,0,0,0,0
4.892,1.5625,0,0,0,0,0
4.893,1.875,0,0,0,0,0
4.894,2.1875,0,0,0,0,0
4.895,2.5,0,0,0,0,0
4.896,2.8125,0,0,0,0,0
4.897,3.125,0,0,0,0,0
4.898,3.75,0,0,0,0,0
4.899,3.125,0,0,0,0,0
4.9,3.75,0,0,0,0,0
4.901,3.75,0,0,0,0,0
4.902,4.0625,0,0,0,0,0
4.903,4.375,0,0,0,0,0
4.904,4.0625,0,0,0,0,0
4.905,4.375,0,0,0,0,0
4.906,4.0625,0,0,0,0,0
4.907,4.375,0,0,0,0,0
4.908,4.6875,0,0,0,0,0
4.909,5,0,0,0,0,0
4.91,4.6875,0,0,0,0,0
4.911,4.375,0,0,0,0,0
4.912,5,0,0,0,0,0
4.913,4.375,0,0,0,0,0
4.914,4.375,0,0,0,0,0
4.915,4.375,0,0,0,0,0
4.916,4.375,0,0,0,0,0
4.917,4.375,0,0,0,0,0
4.918,4.6875,0,0,0,0,0
4.919,5,0,0,0,0,0
4.92,5,0,0,0,0,0
4.921,5,0,0,0,0,0
4.922,5.625,0,0,0,0,0
4.923,5.625,0,0,0,0,0
4.924,5,0,0,0,0,0
4.925,5.625,0,0,0,0,0
4.926,5.625,0,0,0,0,0
4.927,5.625,0,0,0,0,0
4.928,5.3125,0,0,0,0,0
4.929,5,0,0,0,0,0
4.93,5.3125,0,0,0,0,0
4.931,5.625,0,0,0,0,0
4.932,5.625,0,0,0,0,0
4.933,5.625,0,0,0,0,0
4.934,5.3125,0,0,0,0,0
4.935,5,0,0,0,0,0
4.936,5.625,0,0,0,0,0
4.937,5.625,0,0,0,0,0
4.938,5,0,0,0,0,0
4.939,4.375,0,0,0,0,0
4.94,5.3125,0,0,0,0,0
4.941,5.625,0,0,0,0,0
4.942,5.3125,0,0,0,0,0
4.943,5.625,0,0,0,0,0
4.944,5,0,0,0,0,0
4.945,3.75,0,0,0,0,0
4.946,3.75,0,0,0,0,0
4.947,3.75,0,0,0,0,0
4.948,4.0625,0,0,0,0,0
4.949,4.375,0,0,0,0,0
4.95,3.75,0,0,0,0,0
4.951,3.75,0,0,0,0,0
4.952,3.75,0,0,0,0,0
4.953,3.75,0,0,0,0,0
4.954,3.75,0,0,0,0,0
4.955,3.125,0,0,0,0,0
4.956,3.125,0,0,0,0,0
4.957,3.125,0,0,0,0,0
4.958,2.1875,0,0,0,0,0
4.959,1.875,0,0,0,0,0
4.96,1.5625,0,0,0,0,0
4.961,1.25,0,0,0,0,0
4.962,1.25,0,0,0,0,0
4.963,1.25,0,0,0,0,0
4.964,1.875,0,0,0,0,0
4.965,2.5,0,0,0,0,0
4.966,1.875,0,0,0,0,0
4.967,1.875,0,0,0,0,0
4.968,2.5,0,0,0,0,0
4.969,2.5,0,0,0,0,0
4.97,2.1875,0,0,0,0,0
4.971,1.25,0,0,0,0,0
4.972,1.5625,0,0,0,0,0
4.973,1.875,0,0,0,0,0
4.974,1.5625,0,0,0,0,0
4.975,1.25,0,0,0,0,0
4.976,1.5625,0,0,0,0,0
4.977,1.875,0,0,0,0,0
4.978,1.25,0,0,0,0,0
4.979,0.625,0,0,0,0,0
4.98,0.9375,0,0,0,0,0
4.981,1.25,0,0,0,0,0
4.982,0.9375,0,0,0,0,0
4.983,0.625,0,0,0,0,0
4.984,0.9375,0,0,0,0,0
4.985,1.25,0,0,0,0,0
4.986,0.9375,0,0,0,0,0
4.987,0.625,0,0,0,0,0
4.988,0.625,0,0,0,0,0
4.989,0.625,0,0,0,0,0
4.99,0.625,0,0,0,0,0
4.991,0.625,0,0,0,0,0
4.992,0.625,0,0,0,0,0
4.993,0.625,0,0,0,0,0
4.994,0.9375,0,0,0,0,0
4.995,1.25,0,0,0,0,0
4.996,0.625,0,0,0,0,0
4.997,0.625,0,0,0,0,0
4.998,0.3125,0,0,0,0,0
4.999,0,0,0,0,0,0
5,0.3125,0,0,0,0,0
5.001,0.625,0,0,0,0,0
5.002,0.625,0,0,0,0,0
5.003,0.625,0,0,0,0,0
5.004,0.625,0,0,0,0,0
5.005,0.625,0,0,0,0,0
5.006,0.625,0,0,0,0,0
5.007,0,0,0,0,0,0
5.008,0.625,0,0,0,0,0
5.009,0.625,0,0,0,0,0
5.01,0,0,0,0,0,0
5.011,0.625,0,0,0,0,0
5.012,0.625,0,0,0,0,0
5.013,0.625,0,0,0,0,0
5.014,0.625,0,0,0,0,0
5.015,0.625,0,0,0,0,0
5.016,0.625,0,0,0,0,0
5.017,0.625,0,0,0,0,0
5.018,0.3125,0,0,0,0,0
5.019,0,0,0,0,0,0
5.02,0.3125,0,0,0,0,0
5.021,0,0,0,0,0,0
5.022,0.3125,0,0,0,0,0
5.023,0,0,0,0,0,0
5.024,0.3125,0,0,0,0,0
5.025,0.625,0,0,0,0,0
5.026,0,0,0,0,0,0
5.027,0.625,0,0,0,0,0
5.028,0.625,0,0,0,0,0
5.029,0.625,0,0,0,0,0
5.03,0.9375,0,0,0,0,0
5.031,1.25,0,0,0,0,0
5.032,0.9375,0,0,0,0,0
5.033,0,0,0,0,0,0
5.034,0.9375,0,0,0,0,0
5.035,0.625,0,0,0,0,0
5.036,0.3125,0,0,0,0,0
5.037,0,0,0,0,0,0
5.038,0.625,0,0,0,0,0
5.039,0.625,0,0,0,0,0
5.04,0.625,0,0,0,0,0
5.041,0.625,0,0,0,0,0
5.042,0.3125,0,0,0,0,0
5.043,0,0,0,0,0,0
5.044,0.625,0,0,0,0,0
5.045,0.625,0,0,0,0,0
5.046,0.3125,0,0,0,0,0
5.047,0,0,0,0,0,0
5.048,0.3125,0,0,0,0,0
5.049,0.625,0,0,0,0,0
5.05,0.9375,0,0,0,0,0
5.051,1.25,0,0,0,0,0
5.052,1.875,0,0,0,0,0
5.053,1.875,0,0,0,0,0
5.054,1.5625,0,0,0,0,0
5.055,1.25,0,0,0,0,0
5.056,1.875,0,0,0,0,0
5.057,1.875,0,0,0,0,0
5.058,2.1875,0,0,0,0,0
5.059,1.875,0,0,0,0,0
5.06,2.1875,0,0,0,0,0
5.061,2.5,0,0,0,0,0
5.062,1.5625,0,0,0,0,0
5.063,1.25,0,0,0,0,0
5.064,0.9375,0,0,0,0,0
5.065,0,0,0,0,0,0
5.066,0.3125,0,0,0,0,0
5.067,0,0,0,0,0,0
5.068,-0.3125,1,0,0,0,0
5.069,0,0,0,0,0,0
5.07,0,0,0,0,0,0
5.071,0,0,0,0,0,0
5.072,1.25,0,0,0,0,0
5.073,2.5,0,0,0,0,0
5.074,3.4375,0,0,0,0,0
5.075,3.75,0,0,0,0,0
5.076,4.375,0,0,0,0,0
5.077,5,0,0,0,0,0
5.078,5.3125,0,0,0,0,0
5.079,6.25,0,0,0,0,0
5.08,7.5,0,0,0,0,0
5.081,8.125,0,0,0,0,0
5.082,7.8125,0,0,0,0,0
5.083,8.75,0,0,0,0,0
5.084,10.313,0,0,0,0,0
5.085,11.25,0,0,0,0,0
5.086,12.188,0,0,0,0,0
5.087,13.125,0,0,0,0,0
5.088,14.063,0,0,0,0,0
5.089,15.625,0,0,0,0,0
5.09,17.813,0,0,0,0,0
5.091,20,0,0,0,0,0
5.092,21.875,0,0,0,0,0
5.093,23.125,0,0,0,0,0
5.094,23.438,0,0,0,0,0
5.095,23.75,0,0,0,0,0
5.096,25,0,0,0,0,0
5.097,25.625,0,0,0,0,0
5.098,24.688,0,0,0,0,0
5.099,24.375,0,0,0,0,0
5.1,24.063,0,1,0,0,0
5.101,23.125,0,0,0,0,0
5.102,22.5,0,0,0,0,0
5.103,21.25,0,0,0,0,0
5.104,20.313,0,0,0,0,0
5.105,19.375,0,0,0,0,0
5.106,18.125,0,0,0,0,0
5.107,16.875,0,0,0,0,0
5.108,15.938,0,0,0,0,0
5.109,14.375,0,0,0,0,0
5.11,12.813,0,0,0,0,0
5.111,9.375,0,0,0,0,0
5.112,3.4375,0,0,0,0,0
5.113,-0.625,0,0,0,0,0
5.114,-4.375,0,0,0,0,0
5.115,-7.5,0,0,0,0,0
5.116,-10.625,0,0,0,0,0
5.117,-12.5,0,0,0,0,0
5.118,-13.75,0,0,0,0,0
5.119,-14.375,0,0,0,0,0
5.12,-15,0,0,0,0,0
5.121,-15.625,0,0,0,0,0
5.122,-13.438,0,0,0,0,0
5.123,-11.25,0,0,0,0,0
5.124,-9.0625,0,0,0,0,0
5.125,-7.5,0,0,0,0,0
5.126,-7.5,0,0,0,0,0
5.127,-7.5,0,0,0,0,0
5.128,-6.5625,0,0,0,0,0
5.129,-5.625,0,0,0,0,0
5.13,-5,0,0,0,0,0
5.131,-5,0,0,0,0,0
5.132,-4.375,0,0,0,0,0
5.133,-3.125,0,0,0,0,0
5.134,-3.4375,0,0,0,0,0
5.135,-3.125,0,0,0,0,0
5.136,-2.5,0,0,0,0,0
5.137,-1.875,0,0,0,0,0
5.138,-1.875,0,0,0,0,0
5.139,-1.875,0,0,0,0,0
5.14,-1.875,0,0,0,0,0
5.141,-1.875,0,0,0,0,0
5.142,-2.5,0,0,0,0,0
5.143,-2.5,0,0,0,0,0
5.144,-2.8125,0,0,0,0,0
5.145,-2.5,0,0,0,0,0
5.146,-2.1875,0,0,0,0,0
5.147,-1.875,0,0,0,0,0
5.148,-2.1875,0,0,0,0,0
5.149,-2.5,0,0,0,0,0
5.15,-2.8125,0,0,0,0,0
5.151,-3.125,0,0,0,0,0
5.152,-3.4375,0,0,0,0,0
5.153,-3.75,0,0,0,0,0
5.154,-3.125,0,0,0,0,0
5.155,-2.5,0,0,0,0,0
5.156,-2.8125,0,0,0,0,0
5.157,-3.125,0,0,0,0,0
5.158,-2.8125,0,0,0,0,0
5.159,-2.5,0,0,0,0,0
5.16,-2.5,0,0,0,0,0
5.161,-2.5,0,0,0,0,0
5.162,-2.8125,0,0,0,0,0
5.163,-3.75,0,0,0,0,0
5.164,-4.0625,0,0,0,0,0
5.165,-4.375,0,0,0,0,0
5.166,-4.0625,0,0,0,0,0
5.167,-4.375,0,0,0,0,0
5.168,-4.375,0,0,0,0,0
5.169,-4.375,0,0,0,0,0
5.17,-4.0625,0,0,0,0,0
5.171,-4.375,0,0,0,0,0
5.172,-5,0,0,0,0,0
5.173,-5,0,0,0,0,0
5.174,-4.6875,0,0,0,0,0
5.175,-5,0,0,0,0,0
5.176,-5,0,0,0,0,0
5.177,-5,0,0,0,0,0
5.178,-5,0,0,0,0,0
5.179,-5,0,0,0,0,0
5.18,-4.6875,0,0,0,0,0
5.181,-5,0,0,0,0,0
5.182,-4.6875,0,0,0,0,0
5.183,-5,0,0,0,0,0
5.184,-4.6875,0,0,0,0,0
5.185,-5,0,0,0,0,0
5.186,-5,0,0,0,0,0
5.187,-5,0,0,0,0,0
5.188,-5,0,0,0,0,0
5.189,-5,0,0,0,0,0
5.19,-5.3125,0,0,0,0,0
5.191,-5.625,0,0,0,0,0
5.192,-5.3125,0,0,0,0,0
5.193,-5,0,0,0,0,0
5.194,-4.375,0,0,0,0,0
5.195,-4.375,0,0,0,0,0
5.196,-4.6875,0,0,0,0,0
5.197,-4.375,0,0,0,0,0
5.198,-4.0625,0,0,0,0,0
5.199,-3.75,0,0,0,0,0
5.2,-4.375,0,0,0,0,0
5.201,-4.375,0,0,0,0,0
5.202,-4.0625,0,0,0,0,0
5.203,-3.75,0,0,0,0,0
5.204,-3.75,0,0,0,0,0
5.205,-3.125,0,0,0,0,0
5.206,-3.4375,0,0,0,0,0
5.207,-3.75,0,0,0,0,0
5.208,-3.75,0,0,0,0,0
5.209,-3.125,0,0,0,0,0
5.21,-3.125,0,0,0,0,0
5.211,-2.5,0,0,0,0,0
5.212,-1.875,0,0,0,0,0
5.213,-1.25,0,0,0,0,0
5.214,-1.25,0,0,0,0,0
5.215,-1.25,0,0,0,0,0
5.216,-1.875,0,0,0,0,0
5.217,-1.875,0,0,0,0,0
5.218,-1.875,0,0,0,0,0
5.219,-1.25,0,0,0,0,0
5.22,-1.5625,0,0,0,0,0
5.221,-1.25,0,0,0,0,0
5.222,-1.5625,0,0,0,0,0
5.223,-0.625,0,0,0,0,0
5.224,-0.625,0,0,0,0,0
5.225,0,0,0,0,0,0
5.226,0,0,0,0,0,0
5.227,0,0,0,0,0,0
5.228,0,0,0,0,0,0
5.229,0,0,0,0,0,0
5.23,0.3125,0,0,0,0,0
5.231,0.625,0,0,0,0,0
5.232,0.625,0,0,0,0,0
5.233,0.625,0,0,0,0,0
5.234,0.625,0,0,0,0,0
5.235,0.625,0,0,0,0,0
5.236,0.9375,0,0,0,0,0
5.237,1.25,0,0,0,0,0
5.238,1.5625,0,0,0,0,0
5.239,1.875,0,0,0,0,0
5.24,1.5625,0,0,0,0,0
5.241,1.875,0,0,0,0,0
5.242,2.1875,0,0,0,0,0
5.243,2.5,0,0,1,0,0
5.244,2.1875,0,0,0,0,0
5.245,1.875,0,0,0,0,0
5.246,1.875,0,0,0,0,0
5.247,1.875,0,0,0,0,0
5.248,2.1875,0,0,0,0,0
5.249,1.875,0,0,0,0,0
5.25,2.5,0,0,0,0,0
5.251,2.5,0,0,0,0,0
5.252,2.5,0,0,0,0,0
5.253,3.125,0,0,0,0,0
5.254,2.5,0,0,0,0,0
5.255,2.5,0,0,0,0,0
5.256,1.875,0,0,0,0,0
5.257,1.875,0,0,0,0,0
5.258,1.875,0,0,0,0,0
5.259,1.875,0,0,0,0,0
5.26,1.5625,0,0,0,0,0
5.261,1.25,0,0,0,0,0
5.262,1.5625,0,0,0,0,0
5.263,1.875,0,0,0,0,0
5.264,1.875,0,0,0,0,0
5.265,1.875,0,0,0,0,0
5.266,2.1875,0,0,0,0,0
5.267,1.875,0,0,0,0,0
5.268,1.875,0,0,0,0,0
5.269,1.25,0,0,0,0,0
5.27,0.9375,0,0,0,0,0
5.271,0.625,0,0,0,0,0
5.272,0.625,0,0,0,0,0
5.273,0.625,0,0,0,0,0
5.274,0.625,0,0,0,0,0
5.275,0.625,0,0,0,0,0
5.276,0.625,0,0,0,0,0
5.277,1.25,0,0,0,0,0
5.278,0.9375,0,0,0,0,0
5.279,1.25,0,0,0,0,0
5.28,0.625,0,0,0,0,0
5.281,0.625,0,0,0,0,0
5.282,0.9375,0,0,0,0,0
5.283,1.25,0,0,0,0,0
5.284,1.5625,0,0,0,0,0
5.285,1.25,0,0,0,0,0
5.286,1.25,0,0,0,0,0
5.287,1.25,0,0,0,0,0
5.288,1.875,0,0,0,0,0
5.289,1.25,0,0,0,0,0
5.29,1.25,0,0,0,0,0
5.291,1.25,0,0,0,0,0
5.292,1.5625,0,0,0,0,0
5.293,1.875,0,0,0,0,0
5.294,1.5625,0,0,0,0,0
5.295,1.25,0,0,0,0,0
5.296,1.25,0,0,0,0,0
5.297,1.25,0,0,0,0,0
5.298,0.625,0,0,0,0,0
5.299,1.25,0,0,0,0,0
5.3,1.25,0,0,0,0,0
5.301,1.25,0,0,0,0,0
5.302,0.625,0,0,0,0,0
5.303,1.25,0,0,0,0,0
5.304,1.5625,0,0,0,0,0
5.305,1.875,0,0,0,0,0
5.306,1.25,0,0,0,0,0
5.307,1.875,0,0,0,0,0
5.308,1.875,0,0,0,0,0
5.309,1.25,0,0,0,0,0
5.31,0.9375,0,0,0,0,0
5.311,0.625,0,0,0,0,0
5.312,0.625,0,0,0,0,0
5.313,0.625,0,0,0,0,0
5.314,0.625,0,0,0,0,0
5.315,0.625,0,0,0,0,0
5.316,0.9375,0,0,0,0,0
5.317,0.625,0,0,0,0,0
5.318,0.625,0,0,0,0,0
5.319,0.625,0,0,0,0,0
5.32,0,0,0,0,0,0
5.321,0,0,0,0,0,0
5.322,-0.3125,0,0,0,0,0
5.323,0,0,0,0,0,0
5.324,0,0,0,0,0,0
5.325,0,0,0,0,0,0
5.326,0.3125,0,0,0,0,0
5.327,0.625,0,0,0,0,0
5.328,0.625,0,0,0,0,0
5.329,0.625,0,0,0,0,0
5.33,0.625,0,0,0,0,0
5.331,0.625,0,0,0,0,0
5.332,0,0,0,0,0,0
5.333,0,0,0,0,0,0
5.334,0,0,0,0,0,0
5.335,0,0,0,0,0,0
5.336,0.3125,0,0,0,0,0
5.337,0.625,0,0,0,0,0
5.338,0.9375,0,0,0,0,0
5.339,1.25,0,0,0,0,0
5.34,0.625,0,0,0,0,0
5.341,0.625,0,0,0,0,0
5.342,0.3125,0,0,0,0,0
5.343,0,0,0,0,0,0
5.344,0,0,0,0,0,0
5.345,-0.625,0,0,0,0,0
5.346,-0.9375,0,0,0,0,0
5.347,-1.25,0,0,0,0,0
5.348,-1.25,0,0,0,0,0
5.349,-1.25,0,0,0,0,0
5.35,-1.25,0,0,0,0,0
5.351,-1.25,0,0,0,0,0
5.352,-1.5625,0,0,0,0,0
5.353,-2.5,0,0,0,0,0
5.354,-2.5,0,0,0,0,0
5.355,-2.5,0,0,0,0,0
5.356,-2.5,0,0,0,0,0
5.357,-2.5,0,0,0,0,0
5.358,-2.1875,0,0,0,0,0
5.359,-1.875,0,0,0,0,0
5.36,-1.875,0,0,0,0,0
5.361,-1.875,0,0,0,0,0
5.362,-2.1875,0,0,0,0,0
5.363,-2.5,0,0,0,0,0
5.364,-2.8125,0,0,0,0,0
5.365,-3.125,0,0,0,0,0
5.366,-2.8125,0,0,0,0,0
5.367,-3.125,0,0,0,0,0
5.368,-3.4375,0,0,0,0,0
5.369,-3.75,0,0,0,0,0
5.37,-3.4375,0,0,0,0,0
5.371,-3.125,0,0,0,0,0
5.372,-3.125,0,0,0,0,0
5.373,-3.125,0,0,0,0,0
5.374,-3.125,0,0,0,0,0
5.375,-3.125,0,0,0,0,0
5.376,-3.4375,0,0,0,0,0
5.377,-3.75,0,0,0,0,0
5.378,-3.75,0,0,0,0,0
5.379,-3.75,0,0,0,0,0
5.38,-4.0625,0,0,0,1,0
5.381,-3.75,0,0,0,0,0
5.382,-4.0625,0,0,0,0,0
5.383,-3.125,0,0,0,0,0
5.384,-3.125,0,0,0,0,0
5.385,-3.125,0,0,0,0,0
5.386,-2.8125,0,0,0,0,0
5.387,-2.5,0,0,0,0,0
5.388,-2.8125,0,0,0,0,0
5.389,-2.5,0,0,0,0,0
5.39,-2.1875,0,0,0,0,0
5.391,-3.125,0,0,0,0,0
5.392,-2.8125,0,0,0,0,0
5.393,-3.125,0,0,0,0,0
5.394,-2.5,0,0,0,0,0
5.395,-3.125,0,0,0,0,0
5.396,-2.1875,0,0,0,0,0
5.397,-1.875,0,0,0,0,0
5.398,-1.875,0,0,0,0,0
5.399,-1.875,0,0,0,0,0
5.4,-1.5625,0,0,0,0,0
5.401,-1.25,0,0,0,0,0
5.402,-1.875,0,0,0,0,0
5.403,-1.875,0,0,0,0,0
5.404,-1.5625,0,0,0,0,0
5.405,-1.25,0,0,0,0,0
5.406,-1.25,0,0,0,0,0
5.407,-1.875,0,0,0,0,0
5.408,-0.9375,0,0,0,0,0
5.409,-1.25,0,0,0,0,0
5.41,-0.625,0,0,0,0,0
5.411,-1.25,0,0,0,0,0
5.412,-0.625,0,0,0,0,0
5.413,0,0,0,0,0,0
5.414,0,0,0,0,0,0
5.415,0,0,0,0,0,0
5.416,0,0,0,0,0,0
5.417,0.625,0,0,0,0,0
5.418,0.625,0,0,0,0,0
5.419,0.625,0,0,0,0,0
5.42,0.9375,0,0,0,0,0
5.421,0.625,0,0,0,0,0
5.422,0.9375,0,0,0,0,0
5.423,1.25,0,0,0,0,0
5.424,0.9375,0,0,0,0,0
5.425,1.25,0,0,0,0,0
5.426,0.9375,0,0,0,0,0
5.427,0.625,0,0,0,0,0
5.428,0.9375,0,0,0,0,0
5.429,1.25,0,0,0,0,0
5.43,1.875,0,0,0,0,0
5.431,1.875,0,0,0,0,0
5.432,2.1875,0,0,0,0,0
5.433,2.5,0,0,0,0,0
5.434,2.5,0,0,0,0,0
5.435,2.5,0,0,0,0,0
5.436,2.5,0,0,0,0,0
5.437,2.5,0,0,0,0,0
5.438,3.4375,0,0,0,0,0
5.439,3.75,0,0,0,0,0
5.44,3.4375,0,0,0,0,0
5.441,3.75,0,0,0,0,0
5.442,3.75,0,0,0,0,0
5.443,3.125,0,0,0,0,0
5.444,3.75,0,0,0,0,0
5.445,3.75,0,0,0,0,0
5.446,3.4375,0,0,0,0,0
5.447,4.375,0,0,0,0,0
5.448,3.75,0,0,0,0,0
5.449,3.75,0,0,0,0,0
5.45,4.375,0,0,0,0,0
5.451,4.375,0,0,0,0,0
5.452,4.6875,0,0,0,0,0
5.453,5,0,0,0,0,0
5.454,4.6875,0,0,0,0,0
5.455,4.375,0,0,0,0,0
5.456,4.375,0,0,0,0,0
5.457,4.375,0,0,0,0,0
5.458,4.375,0,0,0,0,0
5.459,4.375,0,0,0,0,0
5.46,4.375,0,0,0,0,0
5.461,3.75,0,0,0,0,0
5.462,4.6875,0,0,0,0,0
5.463,4.375,0,0,0,0,0
5.464,3.75,0,0,0,0,0
5.465,3.75,0,0,0,0,0
5.466,4.0625,0,0,0,0,0
5.467,3.75,0,0,0,0,0
5.468,3.4375,0,0,0,0,0
5.469,3.125,0,0,0,0,0
5.47,3.125,0,0,0,0,0
5.471,3.125,0,0,0,0,0
5.472,3.4375,0,0,0,0,0
5.473,3.75,0,0,0,0,0
5.474,3.75,0,0,0,0,0
5.475,3.75,0,0,0,0,0
5.476,3.75,0,0,0,0,0
5.477,3.75,0,0,0,0,0
5.478,3.125,0,0,0,0,0
5.479,3.125,0,0,0,0,0
5.48,2.8125,0,0,0,0,0
5.481,2.5,0,0,0,0,0
5.482,1.875,0,0,0,0,0
5.483,1.875,0,0,0,0,0
5.484,1.875,0,0,0,0,0
5.485,1.875,0,0,0,0,0
5.486,1.875,0,0,0,0,0
5.487,1.875,0,0,0,0,0
5.488,1.875,0,0,0,0,0
5.489,1.875,0,0,0,0,0
5.49,1.875,0,0,0,0,0
5.491,1.875,0,0,0,0,0
5.492,2.1875,0,0,0,0,0
5.493,2.5,0,0,0,0,0
5.494,2.1875,0,0,0,0,0
5.495,1.25,0,0,0,0,0
5.496,0.9375,0,0,0,0,0
5.497,0.625,0,0,0,0,0
5.498,0.3125,0,0,0,0,0
5.499,0,0,0,0,0,0
5.5,0.625,0,0,0,0,0
5.501,1.875,0,0,0,0,0
5.502,1.25,0,0,0,0,1
5.503,1.875,0,0,0,0,0
5.504,2.1875,0,0,0,0,0
5.505,1.875,0,0,0,0,0
5.506,1.875,0,0,0,0,0
5.507,1.875,0,0,0,0,0
5.508,1.875,0,0,0,0,0
5.509,1.875,0,0,0,0,0
5.51,1.875,0,0,0,0,0
5.511,1.875,0,0,0,0,0
5.512,1.875,0,0,0,0,0
5.513,1.875,0,0,0,0,0
5.514,2.8125,0,0,0,0,0
5.515,2.5,0,0,0,0,0
5.516,2.5,0,0,0,0,0
5.517,2.5,0,0,0,0,0
5.518,2.1875,0,0,0,0,0
5.519,1.875,0,0,0,0,0
5.52,1.875,0,0,0,0,0
5.521,1.875,0,0,0,0,0
5.522,2.1875,0,0,0,0,0
5.523,1.875,0,0,0,0,0
5.524,1.5625,0,0,0,0,0
5.525,1.25,0,0,0,0,0
5.526,0.9375,0,0,0,0,0
5.527,1.25,0,0,0,0,0
5.528,1.25,0,0,0,0,0
5.529,1.25,0,0,0,0,0
5.53,0.9375,0,0,0,0,0
5.531,0.625,0,0,0,0,0
5.532,0.625,0,0,0,0,0
5.533,0.625,0,0,0,0,0
5.534,0.9375,0,0,0,0,0
5.535,1.25,0,0,0,0,0
