0,4.5,0,0,0,0,0
0.001,4.6875,0,0,0,0,0
0.002,4.5625,0,0,0,0,0
0.003,4.6875,0,0,0,0,0
0.004,4.25,0,0,0,0,0
0.005,4.375,0,0,0,0,0
0.006,4.5,0,0,0,0,0
0.007,4.375,0,0,0,0,0
0.008,4.0625,0,0,0,0,0
0.009,4.375,0,0,0,0,0
0.01,3.75,0,0,0,0,0
0.011,3.75,0,0,0,0,0
0.012,4.5,0,0,0,0,0
0.013,4.6875,0,0,0,0,0
0.014,4.5,0,0,0,0,0
0.015,5,0,0,0,0,0
0.016,5.3125,0,0,0,0,0
0.017,5.3125,0,0,0,0,0
0.018,4.875,0,0,0,0,0
0.019,4.375,0,0,0,0,0
0.02,4.6875,0,0,0,0,0
0.021,4.6875,0,0,0,0,0
0.022,4.8125,0,0,0,0,0
0.023,4.375,0,0,0,0,0
0.024,4.5625,0,0,0,0,0
0.025,4.6875,0,0,0,0,0
0.026,4.6875,0,0,0,0,0
0.027,4.375,0,0,0,0,0
0.028,4.25,0,0,0,0,0
0.029,3.75,0,0,0,0,0
0.03,3.625,0,0,0,0,0
0.031,3.4375,0,0,0,0,0
0.032,3.75,0,0,0,0,0
0.033,4.0625,0,0,0,0,0
0.034,4.0625,0,0,0,0,0
0.035,4.0625,0,0,0,0,0
0.036,3.75,0,0,0,0,0
0.037,4.0625,0,0,0,0,0
0.038,4.1875,0,0,0,0,0
0.039,4.6875,0,0,0,0,0
0.04,4.8125,0,0,0,0,0
0.041,5.3125,0,0,0,0,0
0.042,5.625,0,0,0,0,0
0.043,5.625,0,0,0,0,0
0.044,5.1875,0,0,0,0,0
0.045,4.6875,0,0,0,0,0
0.046,4.6875,0,0,0,0,0
0.047,4.6875,0,0,0,0,0
0.048,5.125,0,0,0,0,0
0.049,5,0,0,0,0,0
0.05,4.375,0,0,0,0,0
0.051,4.375,0,0,0,0,0
0.052,5,0,0,0,0,0
0.053,5.3125,0,0,0,0,0
0.054,5.3125,0,0,0,0,0
0.055,5.9375,0,0,0,0,0
0.056,5,0,0,0,0,0
0.057,4.0625,0,0,0,0,0
0.058,3.75,0,0,0,0,0
0.059,3.75,0,0,0,0,0
0.06,3.9375,0,0,0,0,0
0.061,3.4375,0,0,0,0,0
0.062,3.4375,0,0,0,0,0
0.063,3.125,0,0,0,0,0
0.064,3,0,0,0,0,0
0.065,3.125,0,0,0,0,0
0.066,4.0625,0,0,0,0,0
0.067,5,0,0,0,0,0
0.068,4.8125,0,0,0,0,0
0.069,4.6875,0,0,0,0,0
0.07,4.5625,0,0,0,0,0
0.071,4.375,0,0,0,0,0
0.072,5.3125,0,0,0,0,0
0.073,5.3125,0,0,0,0,0
0.074,5,0,0,0,0,0
0.075,4.375,0,0,0,0,0
0.076,4.25,0,0,0,0,0
0.077,3.75,0,0,0,0,0
0.078,4.375,0,0,0,0,0
0.079,4.6875,0,0,0,0,0
0.08,4.375,0,0,0,0,0
0.081,4.375,0,0,0,0,0
0.082,4.25,0,0,0,0,0
0.083,4.0625,0,0,0,0,0
0.084,4.0625,0,0,0,0,0
0.085,4.0625,0,0,0,0,0
0.086,3.75,0,0,0,0,0
0.087,3.4375,0,0,0,0,0
0.088,3.3125,0,0,0,0,0
0.089,3.75,0,0,0,0,0
0.09,3.75,0,0,0,0,0
0.091,4.0625,0,0,0,0,0
0.092,4.375,0,0,0,0,0
0.093,5,0,0,0,0,0
0.094,5,0,0,0,0,0
0.095,5,0,0,0,0,0
0.096,4.0625,0,0,0,0,0
0.097,3.125,0,0,0,0,0
0.098,3.75,0,0,0,0,0
0.099,3.75,0,0,0,0,0
0.1,4.5,0,0,0,0,0
0.101,5.3125,0,0,0,0,0
0.102,5.5,0,0,0,0,0
0.103,5.3125,0,0,0,0,0
0.104,4.375,0,0,0,0,0
0.105,3.75,0,0,0,0,0
0.106,3.125,0,0,0,0,0
0.107,2.8125,0,0,0,0,0
0.108,3.125,0,0,0,0,0
0.109,3.75,0,0,0,0,0
0.11,3.9375,0,0,0,0,0
0.111,3.75,0,0,0,0,0
0.112,3.5625,0,0,0,0,0
0.113,3.75,0,0,0,0,0
0.114,4.375,0,0,0,0,0
0.115,4.6875,0,0,0,0,0
0.116,4.875,0,0,0,0,0
0.117,4.375,0,0,0,0,0
0.118,4.5625,0,0,0,0,0
0.119,4.6875,0,0,0,0,0
0.12,4.6875,0,0,0,0,0
0.121,4.6875,0,0,0,0,0
0.122,3.625,0,0,0,0,0
0.123,3.4375,0,0,0,0,0
0.124,3.75,0,0,0,0,0
0.125,3.75,0,0,0,0,0
0.126,3.75,0,0,0,0,0
0.127,3.75,0,0,0,0,0
0.128,3.5625,0,0,0,0,0
0.129,4.0625,0,0,0,0,0
0.13,3.75,0,0,0,0,0
0.131,3.75,0,0,0,0,0
0.132,4.0625,0,0,0,0,0
0.133,4.0625,0,0,0,0,0
0.134,3.9375,0,0,0,0,0
0.135,3.75,0,0,0,0,0
0.136,4.0625,0,0,0,0,0
0.137,3.75,0,0,0,0,0
0.138,3.75,0,0,0,0,0
0.139,3.75,0,0,0,0,0
0.14,3.625,0,0,0,0,0
0.141,4.0625,0,0,0,0,0
0.142,3.9375,0,0,0,0,0
0.143,4.0625,0,0,0,0,0
0.144,4.5,0,0,0,0,0
0.145,4.375,0,0,0,0,0
0.146,4.6875,0,0,0,0,0
0.147,4.6875,0,0,0,0,0
0.148,4.5625,0,0,0,0,0
0.149,5,0,0,0,0,0
0.15,5,0,0,0,0,0
0.151,5,0,0,0,0,0
0.152,5,0,0,0,0,0
0.153,5.9375,0,0,0,0,0
0.154,6.375,0,0,0,0,0
0.155,6.875,0,0,0,0,0
0.156,7.1875,0,0,0,0,0
0.157,7.1875,0,0,0,0,0
0.158,7.0625,0,0,0,0,0
0.159,7.5,0,0,0,0,0
0.16,7.9375,0,0,0,0,0
0.161,7.8125,0,0,0,0,0
0.162,7.9375,0,0,0,0,0
0.163,7.8125,0,0,0,0,0
0.164,8.4375,0,0,0,0,0
0.165,9.0625,0,0,0,0,0
0.166,8.3125,0,0,0,0,0
0.167,7.8125,0,0,0,0,0
0.168,7.8125,0,0,0,0,0
0.169,8.4375,0,0,0,0,0
0.17,7.9375,0,0,0,0,0
0.171,8.125,0,0,0,0,0
0.172,7.8125,0,0,0,0,0
0.173,7.5,0,0,0,0,0
0.174,7.8125,0,0,0,0,0
0.175,7.8125,0,0,0,0,0
0.176,8.25,0,0,0,0,0
0.177,8.4375,0,0,0,0,0
0.178,8.75,0,0,0,0,0
0.179,9.0625,0,0,0,0,0
0.18,8.9375,0,0,0,0,0
0.181,8.125,0,0,0,0,0
0.182,7.8125,0,0,0,0,0
0.183,7.8125,0,0,0,0,0
0.184,7.6875,0,0,0,0,0
0.185,7.5,0,0,0,0,0
0.186,7.375,0,0,0,0,0
0.187,7.1875,0,0,0,0,0
0.188,7.625,0,0,0,0,0
0.189,8.125,0,0,0,0,0
0.19,7.8125,0,0,0,0,0
0.191,7.8125,0,0,0,0,0
0.192,7.3125,0,0,0,0,0
0.193,7.5,0,0,0,0,0
0.194,8.25,0,0,0,0,0
0.195,8.75,0,0,0,0,0
0.196,8.3125,0,0,0,0,0
0.197,7.5,0,0,0,0,0
0.198,7.625,0,0,0,0,0
0.199,7.5,0,0,0,0,0
0.2,7.9375,0,0,0,0,0
0.201,7.8125,0,0,0,0,0
0.202,7.8125,0,0,0,0,0
0.203,8.4375,0,0,0,0,0
0.204,8.25,0,0,0,0,0
0.205,8.125,0,0,0,0,0
0.206,6.75,0,0,0,0,0
0.207,5.625,0,0,0,0,0
0.208,5.625,0,0,0,0,0
0.209,5.625,0,0,0,0,0
0.21,5.9375,0,0,0,0,0
0.211,5.9375,0,0,0,0,0
0.212,5.1875,0,0,0,0,0
0.213,4.6875,0,0,0,0,0
0.214,4.8125,0,0,0,0,0
0.215,5,0,0,0,0,0
0.216,5.4375,0,0,0,0,0
0.217,5.3125,0,0,0,0,0
0.218,5.3125,0,0,0,0,0
0.219,5.3125,0,0,0,0,0
0.22,4.875,0,0,0,0,0
0.221,4.375,0,0,0,0,0
0.222,4.375,0,0,0,0,0
0.223,4.375,0,0,0,0,0
0.224,4.0625,0,0,0,0,0
0.225,4.0625,0,0,0,0,0
0.226,3.4375,0,0,0,0,0
0.227,3.4375,0,0,0,0,0
0.228,3.5625,0,0,0,0,0
0.229,3.75,0,0,0,0,0
0.23,4.5,0,0,0,0,0
0.231,4.375,0,0,0,0,0
0.232,3.9375,0,0,0,0,0
0.233,3.75,0,0,0,0,0
0.234,3.125,0,0,0,0,0
0.235,2.5,0,0,0,0,0
0.236,2.375,0,0,0,0,0
0.237,1.875,0,0,0,0,0
0.238,2.3125,0,0,0,0,0
0.239,3.125,0,0,0,0,0
0.24,3.75,0,0,0,0,0
0.241,4.375,0,0,0,0,0
0.242,4.375,0,0,0,0,0
0.243,4.0625,0,0,0,0,0
0.244,4.25,0,0,0,0,0
0.245,4.0625,0,0,0,0,0
0.246,4.1875,0,0,0,0,0
0.247,4.375,0,0,0,0,0
0.248,3.9375,0,0,0,0,0
0.249,3.75,0,0,0,0,0
0.25,2.5,0,0,0,0,0
0.251,1.875,0,0,0,0,0
0.252,1.875,0,0,0,0,0
0.253,2.1875,0,0,0,0,0
0.254,2.5,0,0,0,0,0
0.255,2.5,0,0,0,0,0
0.256,3.4375,0,0,0,0,0
0.257,3.75,0,0,0,0,0
0.258,4.25,0,0,0,0,0
0.259,3.75,0,0,0,0,0
0.26,3.3125,0,0,0,0,0
0.261,2.8125,0,0,0,0,0
0.262,2.8125,0,0,0,0,0
0.263,2.5,0,0,0,0,0
0.264,2.0625,0,0,0,0,0
0.265,1.875,0,0,0,0,0
0.266,2.5,0,0,0,0,0
0.267,2.8125,0,0,0,0,0
0.268,2.9375,0,0,0,0,0
0.269,3.125,0,0,0,0,0
0.27,2.5,0,0,0,0,0
0.271,1.875,0,0,0,0,0
0.272,2.0625,0,0,0,0,0
0.273,1.875,0,0,0,0,0
0.274,2.3125,0,0,0,0,0
0.275,2.5,0,0,0,0,0
0.276,2.9375,0,0,0,0,0
0.277,2.8125,0,0,0,0,0
0.278,2.6875,0,0,0,0,0
0.279,2.1875,0,0,0,0,0
0.28,2.625,0,0,0,0,0
0.281,3.125,0,0,0,0,0
0.282,3.4375,0,0,0,0,0
0.283,3.4375,0,0,0,0,0
0.284,2.8125,0,0,0,0,0
0.285,2.8125,0,0,0,0,0
0.286,1.875,0,0,0,0,0
0.287,2.1875,0,0,0,0,0
0.288,2,0,0,0,0,0
0.289,2.5,0,0,0,0,0
0.29,2.375,0,0,0,0,0
0.291,2.5,0,0,0,0,0
0.292,2.5,0,0,0,0,0
0.293,2.8125,0,0,0,0,0
0.294,2.6875,0,0,0,0,0
0.295,2.5,0,0,0,0,0
0.296,2.8125,0,0,0,0,0
0.297,2.5,0,0,0,0,0
0.298,2.625,0,0,0,0,0
0.299,3.125,0,0,0,0,0
0.3,3.5625,0,0,0,0,0
0.301,3.4375,0,0,0,0,0
0.302,3.125,0,0,0,0,0
0.303,3.125,0,0,0,0,0
0.304,3.125,0,0,0,0,0
0.305,3.125,0,0,0,0,0
0.306,2.375,0,0,0,0,0
0.307,2.1875,0,0,0,0,0
0.308,1.875,0,0,0,0,0
0.309,1.875,0,0,0,0,0
0.31,1.5625,0,0,0,0,0
0.311,1.875,0,0,0,0,0
0.312,1.875,0,0,0,0,0
0.313,2.5,0,0,0,0,0
0.314,2.5,0,0,0,0,0
0.315,2.1875,0,0,0,0,0
0.316,2.625,0,0,0,0,0
0.317,3.125,0,0,0,0,0
0.318,3.4375,0,0,0,0,0
0.319,3.125,1,0,0,0,0
0.32,3.4375,0,0,0,0,0
0.321,3.4375,0,0,0,0,0
0.322,3.25,0,0,0,0,0
0.323,3.125,0,0,0,0,0
0.324,2.375,0,0,0,0,0
0.325,1.875,0,0,0,0,0
0.326,1.4375,0,0,0,0,0
0.327,1.25,0,0,0,0,0
0.328,0.9375,0,0,0,0,0
0.329,0.9375,0,0,0,0,0
0.33,0.625,0,0,0,0,0
0.331,0.625,0,0,0,0,0
0.332,0.3125,0,0,0,0,0
0.333,0,0,0,0,0,0
0.334,1.0625,0,0,0,0,0
0.335,1.875,0,0,0,0,0
0.336,2.5,0,0,0,0,0
0.337,3.4375,0,0,0,0,0
0.338,3.875,0,0,0,0,0
0.339,4.375,0,0,0,0,0
0.34,4.6875,0,0,0,0,0
0.341,4.0625,0,0,0,0,0
0.342,4.0625,0,0,0,0,0
0.343,3.75,0,0,0,0,0
0.344,3.9375,0,0,0,0,0
0.345,4.375,0,0,0,0,0
0.346,5.125,0,0,0,0,0
0.347,5.9375,0,0,0,0,0
0.348,7,0,0,0,0,0
0.349,8.125,0,0,0,0,0
0.35,9.25,0,0,0,0,0
0.351,10.313,0,0,0,0,0
0.352,11.875,0,0,0,0,0
0.353,13.438,0,0,0,0,0
0.354,14.063,0,0,0,0,0
0.355,14.375,0,0,0,0,0
0.356,15.313,0,0,0,0,0
0.357,15.625,0,0,0,0,0
0.358,16.688,0,0,0,0,0
0.359,17.5,0,0,0,0,0
0.36,17.813,0,0,0,0,0
0.361,18.438,0,0,0,0,0
0.362,18.875,0,0,0,0,0
0.363,19.688,0,1,0,0,0
0.364,19.25,0,0,0,0,0
0.365,19.375,0,0,0,0,0
0.366,19.5,0,0,0,0,0
0.367,19.375,0,0,0,0,0
0.368,19.688,0,0,0,0,0
0.369,19.688,0,0,0,0,0
0.37,19.813,0,0,0,0,0
0.371,19.688,0,0,0,0,0
0.372,19.188,0,0,0,0,0
0.373,17.188,0,0,0,0,0
0.374,14.813,0,0,0,0,0
0.375,13.125,0,0,0,0,0
0.376,10.813,0,0,0,0,0
0.377,8.4375,0,0,0,0,0
0.378,7.5,0,0,0,0,0
0.379,6.5625,0,0,0,0,0
0.38,6.375,0,0,0,0,0
0.381,7.5,0,0,0,0,0
0.382,8.125,0,0,0,0,0
0.383,9.375,0,0,0,0,0
0.384,10.813,0,0,0,0,0
0.385,12.5,0,0,0,0,0
0.386,13.875,0,0,0,0,0
0.387,14.688,0,0,0,0,0
0.388,15.625,0,0,0,0,0
0.389,15.313,0,0,0,0,0
0.39,16.25,0,0,0,0,0
0.391,17.188,0,0,0,0,0
0.392,16.75,0,0,0,0,0
0.393,16.563,0,0,0,0,0
0.394,15.938,0,0,0,0,0
0.395,15.625,0,0,0,0,0
0.396,15.313,0,0,0,0,0
0.397,14.375,0,0,0,0,0
0.398,13.75,0,0,0,0,0
0.399,13.75,0,0,0,0,0
0.4,12.063,0,0,0,0,0
0.401,10.625,0,0,0,0,0
0.402,9.5625,0,0,0,0,0
0.403,8.4375,0,0,0,0,0
0.404,8.125,0,0,0,0,0
0.405,7.8125,0,0,0,0,0
0.406,6.25,0,0,0,0,0
0.407,5,0,0,0,0,0
0.408,5.3125,0,0,0,0,0
0.409,5.625,0,0,0,0,0
0.41,5.625,0,0,0,0,0
0.411,5.625,0,0,0,0,0
0.412,5.625,0,0,0,0,0
0.413,5.625,0,0,0,0,0
0.414,4.6875,0,0,0,0,0
0.415,4.375,0,0,0,0,0
0.416,4.25,0,0,0,0,0
0.417,4.375,0,0,0,0,0
0.418,4.0625,0,0,0,0,0
0.419,4.375,0,0,0,0,0
0.42,4.5,0,0,0,0,0
0.421,4.0625,0,0,0,0,0
0.422,3.875,0,0,0,0,0
0.423,4.0625,0,0,0,0,0
0.424,3.75,0,0,0,0,0
0.425,3.4375,0,0,0,0,0
0.426,2.6875,0,0,0,0,0
0.427,2.1875,0,0,0,0,0
0.428,2.1875,0,0,0,0,0
0.429,1.875,0,0,0,0,0
0.43,1.75,0,0,0,0,0
0.431,1.875,0,0,0,0,0
0.432,1.4375,0,0,0,0,0
0.433,0.9375,0,0,0,0,0
0.434,0.1875,0,0,0,0,0
0.435,-0.3125,0,0,0,0,0
0.436,-0.1875,0,0,0,0,0
0.437,0.3125,0,0,0,0,0
0.438,-0.3125,0,0,0,0,0
0.439,-0.9375,0,0,0,0,0
0.44,-1.6875,0,0,0,0,0
0.441,-1.5625,0,0,0,0,0
0.442,-1.5625,0,0,0,0,0
0.443,-1.5625,0,0,0,0,0
0.444,-1.4375,0,0,0,0,0
0.445,-0.9375,0,0,0,0,0
0.446,0,0,0,0,0,0
0.447,0.625,0,0,0,0,0
0.448,0.3125,0,0,0,0,0
0.449,-0.3125,0,0,0,0,0
0.45,-0.9375,0,0,0,0,0
0.451,-1.5625,0,0,0,0,0
0.452,-1.125,0,0,0,0,0
0.453,-0.9375,0,0,0,0,0
0.454,-0.8125,0,0,0,0,0
0.455,-0.3125,0,0,0,0,0
0.456,0,0,0,0,0,0
0.457,0.3125,0,0,0,0,0
0.458,1.375,0,0,0,0,0
0.459,1.875,0,0,0,0,0
0.46,1.5625,0,0,0,0,0
0.461,1.875,0,0,0,0,0
0.462,1.6875,0,0,0,0,0
0.463,2.5,0,0,0,0,0
0.464,2.8125,0,0,0,0,0
0.465,2.8125,0,0,0,0,0
0.466,2.6875,0,0,0,0,0
0.467,2.1875,0,0,0,0,0
0.468,2.0625,0,0,0,0,0
0.469,1.875,0,0,0,0,0
0.47,2.1875,0,0,0,0,0
0.471,2.1875,0,0,0,0,0
0.472,2.3125,0,0,0,0,0
0.473,2.8125,0,0,0,0,0
0.474,2.1875,0,0,0,0,0
0.475,2.5,0,0,0,0,0
0.476,2.0625,0,0,0,0,0
0.477,2.1875,0,0,1,0,0
0.478,1.4375,0,0,0,0,0
0.479,0.9375,0,0,0,0,0
0.48,1.25,0,0,0,0,0
0.481,1.875,0,0,0,0,0
0.482,1.875,0,0,0,0,0
0.483,1.875,0,0,0,0,0
0.484,1.5625,0,0,0,0,0
0.485,1.25,0,0,0,0,0
0.486,2.1875,0,0,0,0,0
0.487,3.125,0,0,0,0,0
0.488,3.75,0,0,0,0,0
0.489,3.75,0,0,0,0,0
0.49,3.4375,0,0,0,0,0
0.491,3.125,0,0,0,0,0
0.492,3.25,0,0,0,0,0
0.493,3.75,0,0,0,0,0
0.494,3.875,0,0,0,0,0
0.495,3.75,0,0,0,0,0
0.496,3.9375,0,0,0,0,0
0.497,3.75,0,0,0,0,0
0.498,3.125,0,0,0,0,0
0.499,2.5,0,0,0,0,0
0.5,3.125,0,0,0,0,0
0.501,3.4375,0,0,0,0,0
0.502,3.75,0,0,0,0,0
0.503,3.75,0,0,0,0,0
0.504,4.1875,0,0,0,0,0
0.505,4.0625,0,0,0,0,0
0.506,3.875,0,0,0,0,0
0.507,4.0625,0,0,0,0,0
0.508,3.9375,0,0,0,0,0
0.509,3.4375,0,0,0,0,0
0.51,3.625,0,0,0,0,0
0.511,3.125,0,0,0,0,0
0.512,3.75,0,0,0,0,0
0.513,4.375,0,0,0,0,0
0.514,3.75,0,0,0,0,0
0.515,4.375,0,0,0,0,0
0.516,3.75,0,0,0,0,0
0.517,3.75,0,0,0,0,0
0.518,3.3125,0,0,0,0,0
0.519,3.4375,0,0,0,0,0
0.52,3.3125,0,0,0,0,0
0.521,3.125,0,0,0,0,0
0.522,3.5625,0,0,0,0,0
0.523,3.4375,0,0,0,0,0
0.524,3.25,0,0,0,0,0
0.525,3.4375,0,0,0,0,0
0.526,3.625,0,0,0,0,0
0.527,3.4375,0,0,0,0,0
0.528,4.8125,0,0,0,0,0
0.529,5.3125,0,0,0,0,0
0.53,4.875,0,0,0,0,0
0.531,4.6875,0,0,0,0,0
0.532,4.0625,0,0,0,0,0
0.533,4.0625,0,0,0,0,0
0.534,4.0625,0,0,0,0,0
0.535,3.75,0,0,0,0,0
0.536,3.875,0,0,0,0,0
0.537,3.75,0,0,0,0,0
0.538,3.9375,0,0,0,0,0
0.539,4.0625,0,0,0,0,0
0.54,4.1875,0,0,0,0,0
0.541,4.375,0,0,0,0,0
0.542,4.1875,0,0,0,0,0
0.543,4.6875,0,0,0,0,0
0.544,5.3125,0,0,0,0,0
0.545,4.6875,0,0,0,0,0
0.546,4.0625,0,0,0,0,0
0.547,3.4375,0,0,0,0,0
0.548,3.5625,0,0,0,0,0
0.549,3.75,0,0,0,0,0
0.55,3.75,0,0,0,0,0
0.551,4.0625,0,0,0,0,0
0.552,3.9375,0,0,0,0,0
0.553,3.75,0,0,0,0,0
0.554,3.75,0,0,0,0,0
0.555,4.0625,0,0,0,0,0
0.556,4.25,0,0,0,0,0
0.557,4.0625,0,0,0,0,0
0.558,4.6875,0,0,0,0,0
0.559,4.375,0,0,0,0,0
0.56,4.1875,0,0,0,0,0
0.561,4.375,0,0,0,0,0
0.562,4.375,0,0,0,0,0
0.563,4.375,0,0,0,0,0
0.564,3.75,0,0,0,0,0
0.565,3.75,0,0,0,0,0
0.566,4.0625,0,0,0,0,0
0.567,3.75,0,0,0,0,0
0.568,3.625,0,0,0,0,0
0.569,3.75,0,0,0,0,0
0.57,3.875,0,0,0,0,0
0.571,3.75,0,0,0,0,0
0.572,3.3125,0,0,0,0,0
0.573,3.4375,0,0,0,0,0
0.574,3.5625,0,0,0,0,0
0.575,3.4375,0,0,0,0,0
0.576,3.125,0,0,0,0,0
0.577,3.4375,0,0,0,0,0
0.578,3.4375,0,0,0,0,0
0.579,3.4375,0,0,0,0,0
0.58,3.75,0,0,0,0,0
0.581,3.75,0,0,0,0,0
0.582,3.625,0,0,0,0,0
0.583,3.125,0,0,0,0,0
0.584,3.5625,0,0,0,0,0
0.585,3.75,0,0,0,0,0
0.586,3.875,0,0,0,0,0
0.587,3.75,0,0,0,0,0
0.588,4.5,0,0,0,0,0
0.589,4.6875,0,0,0,0,0
0.59,4.25,0,0,0,0,0
0.591,2.8125,0,0,0,0,0
0.592,2.9375,0,0,0,0,0
0.593,3.4375,0,0,0,0,0
0.594,4.0625,0,0,0,0,0
0.595,3.4375,0,0,0,0,0
0.596,3.875,0,0,0,0,0
0.597,4.0625,0,0,0,0,0
0.598,3.4375,0,0,0,0,0
0.599,2.8125,0,0,0,0,0
0.6,2.8125,0,0,0,0,0
0.601,2.8125,0,0,0,0,0
0.602,2.6875,0,0,0,0,0
0.603,2.1875,0,0,0,0,0
0.604,2.8125,0,0,0,0,0
0.605,3.125,0,0,0,0,0
0.606,3,0,0,0,0,0
0.607,2.8125,0,0,0,0,0
0.608,3.4375,0,0,0,0,0
0.609,3.125,0,0,0,0,0
0.61,3.125,0,0,0,0,0
0.611,2.8125,0,0,0,0,0
0.612,2.9375,0,0,0,0,0
0.613,3.125,0,0,0,0,0
0.614,2.8125,0,0,0,0,0
0.615,3.125,0,0,0,0,0
0.616,2.8125,0,0,0,0,0
0.617,2.5,0,0,0,0,0
0.618,2.0625,0,0,0,0,0
0.619,2.1875,0,0,0,0,0
0.62,1.875,0,0,0,0,0
0.621,2.1875,0,0,0,0,0
0.622,1.875,0,0,0,0,0
0.623,1.875,0,0,0,0,0
0.624,2.625,0,0,0,0,0
0.625,3.4375,0,0,0,0,0
0.626,2.625,0,0,0,0,0
0.627,3.125,0,0,0,0,0
0.628,2.8125,0,0,0,0,0
0.629,2.5,0,0,0,0,0
0.63,3.125,0,0,0,0,0
0.631,3.125,0,0,0,0,0
0.632,2.9375,0,0,0,0,0
0.633,3.125,0,0,0,0,0
0.634,3.3125,0,0,0,0,0
0.635,3.125,0,0,0,0,0
0.636,3,0,0,0,0,0
0.637,2.8125,0,0,0,0,0
0.638,2.8125,0,0,0,0,0
0.639,2.8125,0,0,0,0,0
0.64,3.125,0,0,0,0,0
0.641,3.4375,0,0,0,0,0
0.642,3.4375,0,0,0,0,0
0.643,3.75,0,0,0,0,0
0.644,4.0625,0,0,0,0,0
0.645,4.375,0,0,0,0,0
0.646,3.625,0,0,0,0,0
0.647,2.8125,0,0,0,0,0
0.648,3.125,0,0,0,0,0
0.649,3.125,0,0,0,0,0
0.65,3.25,0,0,0,0,0
0.651,3.4375,0,0,0,0,0
0.652,3,0,0,0,0,0
0.653,2.8125,0,0,0,0,0
0.654,3.125,0,0,0,0,0
0.655,3.125,0,0,0,0,0
0.656,3.5625,0,0,0,0,0
0.657,4.375,0,0,0,0,0
0.658,3.75,0,0,0,0,0
0.659,3.4375,0,0,0,0,0
0.66,4.0625,0,0,0,0,0
0.661,4.0625,0,0,0,0,0
0.662,4.1875,0,0,0,0,0
0.663,3.75,0,0,0,0,0
0.664,3.75,0,0,0,0,0
0.665,3.4375,0,0,0,0,0
0.666,4.0625,0,0,0,0,0
0.667,4.375,0,0,0,0,0
0.668,4.0625,0,0,0,0,0
0.669,4.375,0,0,0,0,0
0.67,5.3125,0,0,0,0,0
0.671,5.625,0,0,0,0,0
0.672,5.75,0,0,0,0,0
0.673,6.25,0,0,0,0,0
0.674,6.4375,0,0,0,0,0
0.675,5.9375,0,0,0,0,0
0.676,5.9375,0,0,0,0,0
0.677,6.875,0,0,0,0,0
0.678,6.4375,0,0,0,0,0
0.679,5.9375,0,0,0,0,0
0.68,5.9375,0,0,0,0,0
0.681,6.25,0,0,0,0,0
0.682,6.5625,0,0,0,0,0
0.683,7.5,0,0,0,0,0
0.684,7.6875,0,0,0,0,0
0.685,7.1875,0,0,0,0,0
0.686,6.875,0,0,0,0,0
0.687,6.875,0,0,0,0,0
0.688,6.25,0,0,0,0,0
0.689,5,0,0,0,0,0
0.69,5.75,0,0,0,0,0
0.691,6.25,0,0,0,0,0
0.692,7.3125,0,0,0,0,0
0.693,8.4375,0,0,0,0,0
0.694,8,0,0,0,0,0
0.695,8.125,0,0,0,0,0
0.696,7.6875,0,0,0,0,0
0.697,7.8125,0,0,0,0,0
0.698,7.5,0,0,0,0,0
0.699,7.5,0,0,0,0,0
0.7,7.5,0,0,0,0,0
0.701,7.5,0,0,0,0,0
0.702,7.5,0,0,0,0,0
0.703,7.5,0,0,0,0,0
0.704,7.8125,0,0,0,0,0
0.705,7.8125,0,0,0,0,0
0.706,7.375,0,0,0,0,0
0.707,7.5,0,0,0,0,0
0.708,7.625,0,0,0,0,0
0.709,7.1875,0,0,0,0,0
0.71,7.5,0,0,0,0,0
0.711,7.5,0,0,0,0,0
0.712,7.375,0,0,0,0,0
0.713,6.875,0,0,0,0,0
0.714,6.875,0,0,0,0,0
0.715,7.1875,0,0,0,0,0
0.716,7.3125,0,0,0,0,0
0.717,8.125,0,0,0,0,0
0.718,7.625,0,0,0,0,0
0.719,8.125,0,0,0,0,0
0.72,8.125,0,0,0,0,0
0.721,7.8125,0,0,0,1,0
0.722,7.8125,0,0,0,0,0
0.723,7.8125,0,0,0,0,0
0.724,7.375,0,0,0,0,0
0.725,7.5,0,0,0,0,0
0.726,7.8125,0,0,0,0,0
0.727,7.5,0,0,0,0,0
0.728,7.5,0,0,0,0,0
0.729,7.8125,0,0,0,0,0
0.73,8.125,0,0,0,0,0
0.731,7.8125,0,0,0,0,0
0.732,7.9375,0,0,0,0,0
0.733,7.8125,0,0,0,0,0
0.734,7.0625,0,0,0,0,0
0.735,6.875,0,0,0,0,0
0.736,6.75,0,0,0,0,0
0.737,6.25,0,0,0,0,0
0.738,5.9375,0,0,0,0,0
0.739,6.25,0,0,0,0,0
0.74,6.375,0,0,0,0,0
0.741,6.25,0,0,0,0,0
0.742,6.125,0,0,0,0,0
0.743,5.625,0,0,0,0,0
0.744,5.9375,0,0,0,0,0
0.745,5.625,0,0,0,0,0
0.746,5.9375,0,0,0,0,0
0.747,5.625,0,0,0,0,0
0.748,5.3125,0,0,0,0,0
0.749,5.3125,0,0,0,0,0
0.75,5.75,0,0,0,0,0
0.751,5.9375,0,0,0,0,0
0.752,5.625,0,0,0,0,0
0.753,5.625,0,0,0,0,0
0.754,5.625,0,0,0,0,0
0.755,5.625,0,0,0,0,0
0.756,5.4375,0,0,0,0,0
0.757,5.625,0,0,0,0,0
0.758,5.625,0,0,0,0,0
0.759,5.9375,0,0,0,0,0
0.76,6.25,0,0,0,0,0
0.761,5.9375,0,0,0,0,0
0.762,6.25,0,0,0,0,0
0.763,6.25,0,0,0,0,0
0.764,5.625,0,0,0,0,0
0.765,5,0,0,0,0,0
0.766,5,0,0,0,0,0
0.767,5,0,0,0,0,0
0.768,5.3125,0,0,0,0,0
0.769,5,0,0,0,0,0
0.77,5.4375,0,0,0,0,0
0.771,5.625,0,0,0,0,0
0.772,5.5,0,0,0,0,0
0.773,5,0,0,0,0,0
0.774,5,0,0,0,0,0
0.775,5,0,0,0,0,0
0.776,5,0,0,0,0,0
0.777,5,0,0,0,0,0
0.778,4.6875,0,0,0,0,0
0.779,4.375,0,0,0,0,0
0.78,4.25,0,0,0,0,0
0.781,4.375,0,0,0,0,0
0.782,4.8125,0,0,0,0,0
0.783,5,0,0,0,0,0
0.784,4.5625,0,0,0,0,0
0.785,4.375,0,0,0,0,0
0.786,4.6875,0,0,0,0,1
0.787,4.375,0,0,0,0,0
0.788,4.8125,0,0,0,0,0
0.789,4.375,0,0,0,0,0
0.79,4.6875,0,0,0,0,0
0.791,4.375,0,0,0,0,0
0.792,4.375,0,0,0,0,0
0.793,4.6875,0,0,0,0,0
0.794,3.9375,0,0,0,0,0
0.795,4.0625,0,0,0,0,0
0.796,4.8125,0,0,0,0,0
0.797,4.6875,0,0,0,0,0
0.798,4.5625,0,0,0,0,0
0.799,4.375,0,0,0,0,0
0.8,4.6875,0,0,0,0,0
0.801,4.375,0,0,0,0,0
0.802,4.375,0,0,0,0,0
0.803,3.75,0,0,0,0,0
0.804,4.5,0,0,0,0,0
0.805,4.375,0,0,0,0,0
0.806,4.375,0,0,0,0,0
0.807,4.6875,0,0,0,0,0
0.808,4.6875,0,0,0,0,0
0.809,5,0,0,0,0,0
0.81,5.1875,0,0,0,0,0
0.811,4.375,0,0,0,0,0
0.812,4.0625,0,0,0,0,0
0.813,4.375,0,0,0,0,0
0.814,5,0,0,0,0,0
0.815,5.625,0,0,0,0,0
0.816,5.4375,0,0,0,0,0
0.817,5.625,0,0,0,0,0
0.818,5.625,0,0,0,0,0
0.819,5.625,0,0,0,0,0
0.82,5.5,0,0,0,0,0
0.821,5,0,0,0,0,0
0.822,5.3125,0,0,0,0,0
0.823,5,0,0,0,0,0
0.824,5.1875,0,0,0,0,0
0.825,5,0,0,0,0,0
0.826,5,0,0,0,0,0
0.827,4.6875,0,0,0,0,0
0.828,5.125,0,0,0,0,0
0.829,4.6875,0,0,0,0,0
0.83,4.375,0,0,0,0,0
0.831,4.375,0,0,0,0,0
0.832,4.25,0,0,0,0,0
0.833,4.0625,0,0,0,0,0
0.834,4.25,0,0,0,0,0
0.835,4.0625,0,0,0,0,0
0.836,4.5,0,0,0,0,0
0.837,4.6875,0,0,0,0,0
0.838,4.375,0,0,0,0,0
0.839,4.6875,0,0,0,0,0
0.84,4.875,0,0,0,0,0
0.841,5,0,0,0,0,0
0.842,5.4375,0,0,0,0,0
0.843,5.3125,0,0,0,0,0
0.844,5,0,0,0,0,0
0.845,5,0,0,0,0,0
0.846,5,0,0,0,0,0
0.847,5.625,0,0,0,0,0
0.848,5.3125,0,0,0,0,0
0.849,5.3125,0,0,0,0,0
0.85,4.5625,0,0,0,0,0
0.851,3.75,0,0,0,0,0
0.852,4.1875,0,0,0,0,0
0.853,4.6875,0,0,0,0,0
0.854,5.3125,0,0,0,0,0
0.855,5.9375,0,0,0,0,0
0.856,5.8125,0,0,0,0,0
0.857,5.9375,0,0,0,0,0
0.858,5.75,0,0,0,0,0
0.859,5.625,0,0,0,0,0
0.86,5,0,0,0,0,0
0.861,4.6875,0,0,0,0,0
0.862,4.6875,0,0,0,0,0
0.863,4.6875,0,0,0,0,0
0.864,4.5625,0,0,0,0,0
0.865,4.0625,0,0,0,0,0
0.866,3.9375,0,0,0,0,0
0.867,4.0625,0,0,0,0,0
0.868,4.25,0,0,0,0,0
0.869,3.75,0,0,0,0,0
0.87,3.875,0,0,0,0,0
0.871,4.0625,0,0,0,0,0
0.872,3.75,0,0,0,0,0
0.873,3.75,0,0,0,0,0
0.874,4.1875,0,0,0,0,0
0.875,4.375,0,0,0,0,0
0.876,5,0,0,0,0,0
0.877,5,0,0,0,0,0
0.878,5.4375,0,0,0,0,0
0.879,5.3125,0,0,0,0,0
0.88,5.3125,0,0,0,0,0
0.881,5.3125,0,0,0,0,0
0.882,4.6875,0,0,0,0,0
0.883,4.375,0,0,0,0,0
0.884,4.5,0,0,0,0,0
0.885,4.6875,0,0,0,0,0
0.886,4.8125,0,0,0,0,0
0.887,4.6875,0,0,0,0,0
0.888,4.375,0,0,0,0,0
0.889,4.375,0,0,0,0,0
0.89,4.5625,0,0,0,0,0
0.891,4.0625,0,0,0,0,0
0.892,3.9375,0,0,0,0,0
0.893,4.375,0,0,0,0,0
0.894,4.5,0,0,0,0,0
0.895,4.375,0,0,0,0,0
0.896,4.5,0,0,0,0,0
0.897,4.6875,0,0,0,0,0
0.898,5.125,0,0,0,0,0
0.899,5.3125,0,0,0,0,0
0.9,5.5,0,0,0,0,0
0.901,5,0,0,0,0,0
0.902,4.875,0,0,0,0,0
0.903,4.375,0,0,0,0,0
0.904,3.9375,0,0,0,0,0
0.905,4.0625,0,0,0,0,0
0.906,4.375,0,0,0,0,0
0.907,5,0,0,0,0,0
0.908,5.3125,0,0,0,0,0
0.909,5.3125,0,0,0,0,0
0.91,4.25,0,0,0,0,0
0.911,3.4375,0,0,0,0,0
0.912,4.5625,0,0,0,0,0
0.913,5.3125,0,0,0,0,0
0.914,5,0,0,0,0,0
0.915,4.6875,0,0,0,0,0
0.916,4.6875,0,0,0,0,0
0.917,4.375,0,0,0,0,0
0.918,4.5625,0,0,0,0,0
0.919,3.75,0,0,0,0,0
0.92,3.3125,0,0,0,0,0
0.921,3.4375,0,0,0,0,0
0.922,3.75,0,0,0,0,0
0.923,4.0625,0,0,0,0,0
0.924,4.1875,0,0,0,0,0
0.925,4.6875,0,0,0,0,0
0.926,4.25,0,0,0,0,0
0.927,4.0625,0,0,0,0,0
0.928,4.375,0,0,0,0,0
0.929,4.6875,0,0,0,0,0
0.93,5.3125,0,0,0,0,0
0.931,5.3125,0,0,0,0,0
0.932,5.5,0,0,0,0,0
0.933,5.625,0,0,0,0,0
0.934,5,0,0,0,0,0
0.935,5,0,0,0,0,0
0.936,5.125,0,0,0,0,0
0.937,5.3125,0,0,0,0,0
0.938,6.25,0,0,0,0,0
0.939,6.5625,0,0,0,0,0
0.94,6.25,0,0,0,0,0
0.941,5.9375,0,0,0,0,0
0.942,6.875,0,0,0,0,0
0.943,7.1875,0,0,0,0,0
0.944,7.5,0,0,0,0,0
0.945,7.8125,0,0,0,0,0
0.946,7.9375,0,0,0,0,0
0.947,8.125,0,0,0,0,0
0.948,8.875,0,0,0,0,0
0.949,9.375,0,0,0,0,0
0.95,8.75,0,0,0,0,0
0.951,8.4375,0,0,0,0,0
0.952,8.25,0,0,0,0,0
0.953,8.4375,0,0,0,0,0
0.954,8.3125,0,0,0,0,0
0.955,8.125,0,0,0,0,0
0.956,7.6875,0,0,0,0,0
0.957,6.875,0,0,0,0,0
0.958,7.5,0,0,0,0,0
0.959,6.875,0,0,0,0,0
0.96,7.1875,0,0,0,0,0
0.961,7.1875,0,0,0,0,0
0.962,7.3125,0,0,0,0,0
0.963,8.125,0,0,0,0,0
0.964,7.8125,0,0,0,0,0
0.965,7.8125,0,0,0,0,0
0.966,7.8125,0,0,0,0,0
0.967,7.8125,0,0,0,0,0
0.968,7.8125,0,0,0,0,0
0.969,8.125,0,0,0,0,0
0.97,8.125,0,0,0,0,0
0.971,8.125,0,0,0,0,0
0.972,8.125,0,0,0,0,0
0.973,8.125,0,0,0,0,0
0.974,8.5625,0,0,0,0,0
0.975,9.0625,0,0,0,0,0
0.976,9.0625,0,0,0,0,0
0.977,9.375,0,0,0,0,0
0.978,9.25,0,0,0,0,0
0.979,8.75,0,0,0,0,0
0.98,9.1875,0,0,0,0,0
0.981,8.75,0,0,0,0,0
0.982,8.75,0,0,0,0,0
0.983,8.75,0,0,0,0,0
0.984,8.125,0,0,0,0,0
0.985,7.8125,0,0,0,0,0
0.986,7.625,0,0,0,0,0
0.987,7.8125,0,0,0,0,0
0.988,7.625,0,0,0,0,0
0.989,8.125,0,0,0,0,0
0.99,7.6875,0,0,0,0,0
0.991,7.5,0,0,0,0,0
0.992,8,0,0,0,0,0
0.993,7.5,0,0,0,0,0
0.994,7.5,0,0,0,0,0
0.995,7.1875,0,0,0,0,0
0.996,6.75,0,0,0,0,0
0.997,6.5625,0,0,0,0,0
0.998,6.6875,0,0,0,0,0
0.999,6.875,0,0,0,0,0
1,6.5625,0,0,0,0,0
1.001,6.25,0,0,0,0,0
1.002,6.375,0,0,0,0,0
1.003,6.25,0,0,0,0,0
1.004,6.25,0,0,0,0,0
1.005,6.5625,0,0,0,0,0
1.006,5.625,0,0,0,0,0
1.007,5.3125,0,0,0,0,0
1.008,5.4375,0,0,0,0,0
1.009,5.3125,0,0,0,0,0
1.01,4.875,0,0,0,0,0
1.011,5,0,0,0,0,0
1.012,5.3125,0,0,0,0,0
1.013,5,0,0,0,0,0
1.014,5,0,0,0,0,0
1.015,4.6875,0,0,0,0,0
1.016,4.6875,0,0,0,0,0
1.017,4.0625,0,0,0,0,0
1.018,3.625,0,0,0,0,0
1.019,4.0625,0,0,0,0,0
1.02,3.75,0,0,0,0,0
1.021,3.4375,0,0,0,0,0
1.022,3.3125,0,0,0,0,0
1.023,3.125,0,0,0,0,0
1.024,3.875,0,0,0,0,0
1.025,4.6875,0,0,0,0,0
1.026,4.25,0,0,0,0,0
1.027,4.0625,0,0,0,0,0
1.028,4.375,0,0,0,0,0
1.029,4.375,0,0,0,0,0
1.03,4.5,0,0,0,0,0
1.031,4.6875,0,0,0,0,0
1.032,4.25,0,0,0,0,0
1.033,4.375,0,0,0,0,0
1.034,3.75,0,0,0,0,0
1.035,3.125,0,0,0,0,0
1.036,3.4375,0,0,0,0,0
1.037,3.4375,0,0,0,0,0
1.038,3.75,0,0,0,0,0
1.039,3.4375,0,0,0,0,0
1.04,3.4375,0,0,0,0,0
1.041,3.4375,0,0,0,0,0
1.042,3.75,0,0,0,0,0
1.043,3.75,0,0,0,0,0
1.044,2.8125,0,0,0,0,0
1.045,2.5,0,0,0,0,0
1.046,2.1875,0,0,0,0,0
1.047,2.8125,0,0,0,0,0
1.048,2.5,0,0,0,0,0
1.049,2.5,0,0,0,0,0
1.05,2.1875,0,0,0,0,0
1.051,1.875,0,0,0,0,0
1.052,2,0,0,0,0,0
1.053,2.1875,0,0,0,0,0
1.054,2.3125,0,0,0,0,0
1.055,2.8125,0,0,0,0,0
1.056,3.25,0,0,0,0,0
1.057,3.75,0,0,0,0,0
1.058,3.75,0,0,0,0,0
1.059,3.4375,0,0,0,0,0
1.06,3.125,0,0,0,0,0
1.061,3.4375,0,0,0,0,0
1.062,3,0,0,0,0,0
1.063,2.8125,0,0,0,0,0
1.064,2.375,0,0,0,0,0
1.065,2.1875,0,0,0,0,0
1.066,1.875,0,0,0,0,0
1.067,1.875,0,0,0,0,0
1.068,1.6875,0,0,0,0,0
1.069,2.1875,0,0,0,0,0
1.07,2.5,0,0,0,0,0
1.071,2.5,0,0,0,0,0
1.072,1.875,0,0,0,0,0
1.073,1.25,0,0,0,0,0
1.074,1.5625,0,0,0,0,0
1.075,0.9375,0,0,0,0,0
1.076,2,0,0,0,0,0
1.077,2.1875,0,0,0,0,0
1.078,2.375,0,0,0,0,0
1.079,2.1875,0,0,0,0,0
1.08,2.625,0,0,0,0,0
1.081,2.5,0,0,0,0,0
1.082,2.9375,0,0,0,0,0
1.083,3.4375,0,0,0,0,0
1.084,3.3125,0,0,0,0,0
1.085,3.4375,0,0,0,0,0
1.086,2.8125,0,0,0,0,0
1.087,2.5,0,0,0,0,0
1.088,2.5,0,0,0,0,0
1.089,2.5,0,0,0,0,0
1.09,2.1875,0,0,0,0,0
1.091,1.875,0,0,0,0,0
1.092,1.5625,0,0,0,0,0
1.093,1.5625,0,0,0,0,0
1.094,2.3125,0,0,0,0,0
1.095,2.5,0,0,0,0,0
1.096,2.8125,0,0,0,0,0
1.097,2.5,0,0,0,0,0
1.098,2.375,0,0,0,0,0
1.099,1.875,0,0,0,0,0
1.1,2.3125,0,0,0,0,0
1.101,2.1875,0,0,0,0,0
1.102,2.5,0,0,0,0,0
1.103,2.5,0,0,0,0,0
1.104,2.1875,0,0,0,0,0
1.105,2.5,0,0,0,0,0
1.106,2.9375,0,0,0,0,0
1.107,3.125,0,0,0,0,0
1.108,2.5,0,0,0,0,0
1.109,2.8125,0,0,0,0,0
1.11,2.375,0,0,0,0,0
1.111,1.5625,0,0,0,0,0
1.112,1.875,0,0,0,0,0
1.113,2.1875,0,0,0,0,0
1.114,2.5,0,0,0,0,0
1.115,2.5,0,0,0,0,0
1.116,2.375,0,0,0,0,0
1.117,2.1875,0,0,0,0,0
1.118,1.875,0,0,0,0,0
1.119,1.25,1,0,0,0,0
1.12,1.25,0,0,0,0,0
1.121,1.25,0,0,0,0,0
1.122,2.625,0,0,0,0,0
1.123,4.375,0,0,0,0,0
1.124,4.5625,0,0,0,0,0
1.125,4.375,0,0,0,0,0
1.126,4.375,0,0,0,0,0
1.127,4.0625,0,0,0,0,0
1.128,4.5,0,0,0,0,0
1.129,5.625,0,0,0,0,0
1.13,5.4375,0,0,0,0,0
1.131,5.9375,0,0,0,0,0
1.132,5.5,0,0,0,0,0
1.133,5.3125,0,0,0,0,0
1.134,6.0625,0,0,0,0,0
1.135,6.875,0,0,0,0,0
1.136,7.8125,0,0,0,0,0
1.137,8.75,0,0,0,0,0
1.138,9.0625,0,0,0,0,0
1.139,10,0,0,0,0,0
1.14,11.25,0,0,0,0,0
1.141,12.813,0,0,0,0,0
1.142,14.5,0,0,0,0,0
1.143,15.938,0,0,0,0,0
1.144,16.563,0,0,0,0,0
1.145,16.875,0,0,0,0,0
1.146,16.875,0,0,0,0,0
1.147,17.813,0,0,0,0,0
1.148,18.563,0,0,0,0,0
1.149,18.75,0,0,0,0,0
1.15,19.375,0,0,0,0,0
1.151,20,0,0,0,0,0
1.152,20.313,0,0,0,0,0
1.153,19.688,0,0,0,0,0
1.154,19.875,0,1,0,0,0
1.155,19.688,0,0,0,0,0
1.156,19.25,0,0,0,0,0
1.157,19.375,0,0,0,0,0
1.158,18.75,0,0,0,0,0
1.159,17.813,0,0,0,0,0
1.16,17.063,0,0,0,0,0
1.161,15.938,0,0,0,0,0
1.162,13.875,0,0,0,0,0
1.163,11.875,0,0,0,0,0
1.164,10.938,0,0,0,0,0
1.165,10.938,0,0,0,0,0
1.166,9.875,0,0,0,0,0
1.167,9.0625,0,0,0,0,0
1.168,8.5625,0,0,0,0,0
1.169,8.4375,0,0,0,0,0
1.17,10,0,0,0,0,0
1.171,11.25,0,0,0,0,0
1.172,12.188,0,0,0,0,0
1.173,13.75,0,0,0,0,0
1.174,16.25,0,0,0,0,0
1.175,17.813,0,0,0,0,0
1.176,18,0,0,0,0,0
1.177,18.125,0,0,0,0,0
1.178,17.063,0,0,0,0,0
1.179,17.188,0,0,0,0,0
1.18,17.688,0,0,0,0,0
1.181,17.188,0,0,0,0,0
1.182,17.188,0,0,0,0,0
1.183,16.875,0,0,0,0,0
1.184,16.563,0,0,0,0,0
1.185,15.313,0,0,0,0,0
1.186,13.75,0,0,0,0,0
1.187,12.5,0,0,0,0,0
1.188,11.875,0,0,0,0,0
1.189,10.938,0,0,0,0,0
1.19,10.625,0,0,0,0,0
1.191,10,0,0,0,0,0
1.192,9.0625,0,0,0,0,0
1.193,8.4375,0,0,0,0,0
1.194,8.125,0,0,0,0,0
1.195,7.5,0,0,0,0,0
1.196,6.5625,0,0,0,0,0
1.197,6.5625,0,0,0,0,0
1.198,6.75,0,0,0,0,0
1.199,6.25,0,0,0,0,0
1.2,6.375,0,0,0,0,0
1.201,6.5625,0,0,0,0,0
1.202,6.125,0,0,0,0,0
1.203,5.3125,0,0,0,0,0
1.204,5.1875,0,0,0,0,0
1.205,5.3125,0,0,0,0,0
1.206,5.5,0,0,0,0,0
1.207,4.6875,0,0,0,0,0
1.208,5,0,0,0,0,0
1.209,5,0,0,0,0,0
1.21,5,0,0,0,0,0
1.211,5,0,0,0,0,0
1.212,4.5625,0,0,0,0,0
1.213,3.75,0,0,0,0,0
1.214,2.8125,0,0,0,0,0
1.215,1.875,0,0,0,0,0
1.216,1.6875,0,0,0,0,0
1.217,1.5625,0,0,0,0,0
1.218,0.625,0,0,0,0,0
1.219,0.3125,0,0,0,0,0
1.22,0.75,0,0,0,0,0
1.221,0.625,0,0,0,0,0
1.222,0.625,0,0,0,0,0
1.223,0.3125,0,0,0,0,0
1.224,-0.125,0,0,0,0,0
1.225,-0.3125,0,0,0,0,0
1.226,0,0,0,0,0,0
1.227,-0.3125,0,0,0,0,0
1.228,-0.5,0,0,0,0,0
1.229,-0.9375,0,0,0,0,0
1.23,-0.9375,0,0,0,0,0
1.231,-1.25,0,0,0,0,0
1.232,-1.125,0,0,0,0,0
1.233,-1.25,0,0,0,0,0
1.234,-1.5625,0,0,0,0,0
1.235,-1.25,0,0,0,0,0
1.236,-0.5,0,0,0,0,0
1.237,-0.3125,0,0,0,0,0
1.238,-0.8125,0,0,0,0,0
1.239,-0.625,0,0,0,0,0
1.24,-0.9375,0,0,0,0,0
1.241,-0.9375,0,0,0,0,0
1.242,-1.0625,0,0,0,0,0
1.243,-1.25,0,0,0,0,0
1.244,-1.0625,0,0,0,0,0
1.245,-0.9375,0,0,0,0,0
1.246,-0.5,0,0,0,0,0
1.247,0.625,0,0,0,0,0
1.248,1.5625,0,0,0,0,0
1.249,1.875,0,0,0,0,0
1.25,2.1875,0,0,0,0,0
1.251,1.875,0,0,0,0,0
1.252,2.1875,0,0,0,0,0
1.253,2.1875,0,0,0,0,0
1.254,2.3125,0,0,0,0,0
1.255,2.5,0,0,0,0,0
1.256,2.1875,0,0,0,0,0
1.257,2.1875,0,0,0,0,0
1.258,2.3125,0,0,0,0,0
1.259,2.8125,0,0,0,0,0
1.26,2.5,0,0,0,0,0
1.261,2.1875,0,0,0,0,0
1.262,2.0625,0,0,0,0,0
1.263,0.9375,0,0,0,0,0
1.264,1.5625,0,0,0,0,0
1.265,1.5625,0,0,0,0,0
1.266,2,0,0,0,0,0
1.267,2.1875,0,0,0,0,0
1.268,2.375,0,0,0,0,0
1.269,2.5,0,0,0,0,0
1.27,3.125,0,0,0,0,0
1.271,3.125,0,0,0,0,0
1.272,3.5625,0,0,0,0,0
1.273,4.0625,0,0,1,0,0
1.274,4.0625,0,0,0,0,0
1.275,4.0625,0,0,0,0,0
1.276,3.625,0,0,0,0,0
1.277,3.75,0,0,0,0,0
1.278,4.0625,0,0,0,0,0
1.279,4.0625,0,0,0,0,0
1.28,3.75,0,0,0,0,0
1.281,3.75,0,0,0,0,0
1.282,3.9375,0,0,0,0,0
1.283,3.75,0,0,0,0,0
1.284,3.3125,0,0,0,0,0
1.285,3.4375,0,0,0,0,0
1.286,3.3125,0,0,0,0,0
1.287,3.4375,0,0,0,0,0
1.288,4.0625,0,0,0,0,0
1.289,4.375,0,0,0,0,0
1.29,3.9375,0,0,0,0,0
1.291,4.0625,0,0,0,0,0
1.292,4.0625,0,0,0,0,0
1.293,4.375,0,0,0,0,0
1.294,4.1875,0,0,0,0,0
1.295,4.0625,0,0,0,0,0
1.296,4.0625,0,0,0,0,0
1.297,4.0625,0,0,0,0,0
1.298,3.875,0,0,0,0,0
1.299,4.375,0,0,0,0,0
1.3,3.75,0,0,0,0,0
1.301,3.4375,0,0,0,0,0
1.302,3.4375,0,0,0,0,0
1.303,2.8125,0,0,0,0,0
1.304,3.4375,0,0,0,0,0
1.305,3.125,0,0,0,0,0
1.306,3.5625,0,0,0,0,0
1.307,3.4375,0,0,0,0,0
1.308,4.0625,0,0,0,0,0
1.309,4.375,0,0,0,0,0
1.31,4.375,0,0,0,0,0
1.311,4.6875,0,0,0,0,0
1.312,4.5,0,0,0,0,0
1.313,4.375,0,0,0,0,0
1.314,4.0625,0,0,0,0,0
1.315,4.0625,0,0,0,0,0
1.316,3.9375,0,0,0,0,0
1.317,4.375,0,0,0,0,0
1.318,4.1875,0,0,0,0,0
1.319,4.0625,0,0,0,0,0
1.32,4.0625,0,0,0,0,0
1.321,3.75,0,0,0,0,0
1.322,3.75,0,0,0,0,0
1.323,3.75,0,0,0,0,0
1.324,3.875,0,0,0,0,0
1.325,4.0625,0,0,0,0,0
1.326,3.625,0,0,0,0,0
1.327,3.75,0,0,0,0,0
1.328,3.9375,0,0,0,0,0
1.329,3.4375,0,0,0,0,0
1.33,3.25,0,0,0,0,0
1.331,3.125,0,0,0,0,0
1.332,3.875,0,0,0,0,0
1.333,5,0,0,0,0,0
1.334,4.5,0,0,0,0,0
1.335,4.6875,0,0,0,0,0
1.336,3.9375,0,0,0,0,0
1.337,3.125,0,0,0,0,0
1.338,3.25,0,0,0,0,0
1.339,3.125,0,0,0,0,0
1.34,3,0,0,0,0,0
1.341,2.8125,0,0,0,0,0
1.342,2.6875,0,0,0,0,0
1.343,2.5,0,0,0,0,0
1.344,3.125,0,0,0,0,0
1.345,3.75,0,0,0,0,0
1.346,4.1875,0,0,0,0,0
1.347,5,0,0,0,0,0
1.348,4.25,0,0,0,0,0
1.349,3.75,0,0,0,0,0
1.35,3.3125,0,0,0,0,0
1.351,2.8125,0,0,0,0,0
1.352,3.125,0,0,0,0,0
1.353,3.125,0,0,0,0,0
1.354,3.5625,0,0,0,0,0
1.355,4.0625,0,0,0,0,0
1.356,3.625,0,0,0,0,0
1.357,3.4375,0,0,0,0,0
1.358,3.3125,0,0,0,0,0
1.359,2.8125,0,0,0,0,0
1.36,2.9375,0,0,0,0,0
1.361,3.125,0,0,0,0,0
1.362,3.4375,0,0,0,0,0
1.363,3.4375,0,0,0,0,0
1.364,3,0,0,0,0,0
1.365,2.8125,0,0,0,0,0
1.366,3.4375,0,0,0,0,0
1.367,3.125,0,0,0,0,0
1.368,2.8125,0,0,0,0,0
1.369,3.125,0,0,0,0,0
1.37,3.25,0,0,0,0,0
1.371,3.4375,0,0,0,0,0
1.372,2.5,0,0,0,0,0
1.373,2.1875,0,0,0,0,0
1.374,2.0625,0,0,0,0,0
1.375,1.875,0,0,0,0,0
1.376,1.5625,0,0,0,0,0
1.377,1.875,0,0,0,0,0
1.378,1.5625,0,0,0,0,0
1.379,1.875,0,0,0,0,0
1.38,1.5625,0,0,0,0,0
1.381,1.875,0,0,0,0,0
1.382,2.3125,0,0,0,0,0
1.383,3.125,0,0,0,0,0
1.384,2.625,0,0,0,0,0
1.385,3.125,0,0,0,0,0
1.386,3.4375,0,0,0,0,0
1.387,3.4375,0,0,0,0,0
1.388,3.25,0,0,0,0,0
1.389,3.4375,0,0,0,0,0
1.39,3,0,0,0,0,0
1.391,2.5,0,0,0,0,0
1.392,2.3125,0,0,0,0,0
1.393,2.8125,0,0,0,0,0
1.394,3.25,0,0,0,0,0
1.395,3.75,0,0,0,0,0
1.396,3.625,0,0,0,0,0
1.397,4.0625,0,0,0,0,0
1.398,3.125,0,0,0,0,0
1.399,2.5,0,0,0,0,0
1.4,2.5,0,0,0,0,0
1.401,2.8125,0,0,0,0,0
1.402,2.8125,0,0,0,0,0
1.403,2.5,0,0,0,0,0
1.404,2.8125,0,0,0,0,0
1.405,2.5,0,0,0,0,0
1.406,1.875,0,0,0,0,0
1.407,1.5625,0,0,0,0,0
1.408,2.0625,0,0,0,0,0
1.409,1.5625,0,0,0,0,0
1.41,2.5,0,0,0,0,0
1.411,2.8125,0,0,0,0,0
1.412,2.8125,0,0,0,0,0
1.413,3.125,0,0,0,0,0
1.414,3.3125,0,0,0,0,0
1.415,2.1875,0,0,0,0,0
1.416,2.5,0,0,0,0,0
1.417,2.1875,0,0,0,0,0
1.418,1.75,0,0,0,0,0
1.419,2.1875,0,0,0,0,0
1.42,2.3125,0,0,0,0,0
1.421,2.1875,0,0,0,0,0
1.422,1.875,0,0,0,0,0
1.423,1.875,0,0,0,0,0
1.424,1.5625,0,0,0,0,0
1.425,1.25,0,0,0,0,0
1.426,1.125,0,0,0,0,0
1.427,0.9375,0,0,0,0,0
1.428,1.375,0,0,0,0,0
1.429,2.1875,0,0,0,0,0
1.43,2.375,0,0,0,0,0
1.431,2.1875,0,0,0,0,0
1.432,2.375,0,0,0,0,0
1.433,2.1875,0,0,0,0,0
1.434,2.1875,0,0,0,0,0
1.435,1.875,0,0,0,0,0
1.436,2,0,0,0,0,0
1.437,3.125,0,0,0,0,0
1.438,3.4375,0,0,0,0,0
1.439,3.4375,0,0,0,0,0
1.44,3.5625,0,0,0,0,0
1.441,3.4375,0,0,0,0,0
1.442,3.3125,0,0,0,0,0
1.443,3.4375,0,0,0,0,0
1.444,3.4375,0,0,0,0,0
1.445,3.4375,0,0,0,0,0
1.446,3.75,0,0,0,0,0
1.447,3.4375,0,0,0,0,0
1.448,3.125,0,0,0,0,0
1.449,3.4375,0,0,0,0,0
1.45,3.5625,0,0,0,0,0
1.451,3.75,0,0,0,0,0
1.452,3,0,0,0,0,0
1.453,3.125,0,0,0,0,0
1.454,3.4375,0,0,0,0,0
1.455,4.375,0,0,0,0,0
1.456,4.375,0,0,0,0,0
1.457,3.75,0,0,0,0,0
1.458,3.75,0,0,0,0,0
1.459,3.75,0,0,0,0,0
1.46,3.875,0,0,0,0,0
1.461,4.375,0,0,0,0,0
1.462,4.5625,0,0,0,0,0
1.463,5,0,0,0,0,0
1.464,5.125,0,0,0,0,0
1.465,5,0,0,0,0,0
1.466,5.5,0,0,0,0,0
1.467,5,0,0,0,0,0
1.468,4.5625,0,0,0,0,0
1.469,4.375,0,0,0,0,0
1.47,4.5625,0,0,0,0,0
1.471,4.375,0,0,0,0,0
1.472,5.4375,0,0,0,0,0
1.473,6.25,0,0,0,0,0
1.474,6.25,0,0,0,0,0
1.475,6.25,0,0,0,0,0
1.476,6.25,0,0,0,0,0
1.477,6.5625,0,0,0,0,0
1.478,5.9375,0,0,0,0,0
1.479,5.9375,0,0,0,0,0
1.48,6.25,0,0,0,0,0
1.481,6.875,0,0,0,0,0
1.482,7.1875,0,0,0,0,0
1.483,6.875,0,0,0,0,0
1.484,7.1875,0,0,0,0,0
1.485,6.875,0,0,0,0,0
1.486,7.3125,0,0,0,0,0
1.487,7.1875,0,0,0,0,0
1.488,6.875,0,0,0,0,0
1.489,6.875,0,0,0,0,0
1.49,7.1875,0,0,0,0,0
1.491,7.1875,0,0,0,0,0
1.492,7.3125,0,0,0,0,0
1.493,7.8125,0,0,0,0,0
1.494,7.8125,0,0,0,0,0
1.495,7.5,0,0,0,0,0
1.496,7.5,0,0,0,0,0
1.497,7.1875,0,0,0,0,0
1.498,6.5625,0,0,0,0,0
1.499,6.875,0,0,0,0,0
1.5,6.875,0,0,0,0,0
1.501,6.875,0,0,0,0,0
1.502,6.6875,0,0,0,1,0
1.503,6.875,0,0,0,0,0
1.504,7.3125,0,0,0,0,0
1.505,7.5,0,0,0,0,0
1.506,8,0,0,0,0,0
1.507,7.1875,0,0,0,0,0
1.508,7.625,0,0,0,0,0
1.509,7.8125,0,0,0,0,0
1.51,7.5,0,0,0,0,0
1.511,7.5,0,0,0,0,0
1.512,7.625,0,0,0,0,0
1.513,7.5,0,0,0,0,0
1.514,7.6875,0,0,0,0,0
1.515,7.5,0,0,0,0,0
1.516,6.875,0,0,0,0,0
1.517,6.875,0,0,0,0,0
1.518,7.1875,0,0,0,0,0
1.519,7.5,0,0,0,0,0
1.52,7.1875,0,0,0,0,0
1.521,7.1875,0,0,0,0,0
1.522,7,0,0,0,0,0
1.523,6.875,0,0,0,0,0
1.524,7.625,0,0,0,0,0
1.525,8.125,0,0,0,0,0
1.526,7.0625,0,0,0,0,0
1.527,5.9375,0,0,0,0,0
1.528,6.25,0,0,0,0,0
1.529,6.25,0,0,0,0,0
1.53,6.0625,0,0,0,0,0
1.531,6.25,0,0,0,0,0
1.532,6.25,0,0,0,0,0
1.533,6.5625,0,0,0,0,0
1.534,5.625,0,0,0,0,0
1.535,5.625,0,0,0,0,0
1.536,5.1875,0,0,0,0,0
1.537,5,0,0,0,0,0
1.538,5.625,0,0,0,0,0
1.539,6.25,0,0,0,0,0
1.54,5.8125,0,0,0,0,0
1.541,5,0,0,0,0,0
1.542,5,0,0,0,0,0
1.543,4.6875,0,0,0,0,0
1.544,4.5,0,0,0,0,0
1.545,4.375,0,0,0,0,0
1.546,4.8125,0,0,0,0,0
1.547,5.3125,0,0,0,0,0
1.548,5.75,0,0,0,0,0
1.549,6.25,0,0,0,0,0
1.55,6.0625,0,0,0,0,0
1.551,6.25,0,0,0,0,0
1.552,5.5,0,0,0,0,0
1.553,5,0,0,0,0,0
1.554,5,0,0,0,0,0
1.555,5,0,0,0,0,0
1.556,5.125,0,0,0,0,0
1.557,5.625,0,0,0,0,0
1.558,5.1875,0,0,0,0,0
1.559,5.3125,0,0,0,0,0
1.56,5,0,0,0,0,0
1.561,4.6875,0,0,0,0,0
1.562,4.25,0,0,0,0,1
1.563,4.0625,0,0,0,0,0
1.564,4.6875,0,0,0,0,0
1.565,5.3125,0,0,0,0,0
1.566,5.3125,0,0,0,0,0
1.567,5,0,0,0,0,0
1.568,4.375,0,0,0,0,0
1.569,4.0625,0,0,0,0,0
1.57,4.6875,0,0,0,0,0
1.571,5.3125,0,0,0,0,0
1.572,5,0,0,0,0,0
1.573,4.375,0,0,0,0,0
1.574,4.25,0,0,0,0,0
1.575,4.375,0,0,0,0,0
1.576,4.1875,0,0,0,0,0
1.577,4.6875,0,0,0,0,0
1.578,4.0625,0,0,0,0,0
1.579,4.6875,0,0,0,0,0
1.58,4.8125,0,0,0,0,0
1.581,4.6875,0,0,0,0,0
1.582,5,0,0,0,0,0
1.583,4.6875,0,0,0,0,0
1.584,4.5625,0,0,0,0,0
1.585,4.6875,0,0,0,0,0
1.586,4.5,0,0,0,0,0
1.587,4.6875,0,0,0,0,0
1.588,4.5625,0,0,0,0,0
1.589,4.6875,0,0,0,0,0
1.59,4.6875,0,0,0,0,0
1.591,5,0,0,0,0,0
1.592,4.375,0,0,0,0,0
1.593,5,0,0,0,0,0
1.594,4.6875,0,0,0,0,0
1.595,4.6875,0,0,0,0,0
1.596,5.3125,0,0,0,0,0
1.597,5.625,0,0,0,0,0
1.598,5.1875,0,0,0,0,0
1.599,4.6875,0,0,0,0,0
1.6,4.1875,0,0,0,0,0
1.601,4.0625,0,0,0,0,0
1.602,4.0625,0,0,0,0,0
1.603,4.0625,0,0,0,0,0
1.604,4.6875,0,0,0,0,0
1.605,4.6875,0,0,0,0,0
1.606,4.5625,0,0,0,0,0
1.607,4.375,0,0,0,0,0
1.608,4.375,0,0,0,0,0
1.609,4.375,0,0,0,0,0
1.61,4.0625,0,0,0,0,0
1.611,4.375,0,0,0,0,0
1.612,4.0625,0,0,0,0,0
1.613,4.375,0,0,0,0,0
1.614,4.6875,0,0,0,0,0
1.615,5,0,0,0,0,0
1.616,4.8125,0,0,0,0,0
1.617,5.3125,0,0,0,0,0
1.618,4.5625,0,0,0,0,0
1.619,4.375,0,0,0,0,0
1.62,4.5625,0,0,0,0,0
1.621,4.375,0,0,0,0,0
1.622,4.0625,0,0,0,0,0
1.623,4.0625,0,0,0,0,0
1.624,4.1875,0,0,0,0,0
1.625,4.375,0,0,0,0,0
1.626,4.1875,0,0,0,0,0
1.627,4.0625,0,0,0,0,0
1.628,4.5,0,0,0,0,0
1.629,5,0,0,0,0,0
1.63,5.625,0,0,0,0,0
1.631,6.25,0,0,0,0,0
1.632,5,0,0,0,0,0
1.633,3.75,0,0,0,0,0
1.634,3.875,0,0,0,0,0
1.635,3.75,0,0,0,0,0
1.636,4.1875,0,0,0,0,0
1.637,4.0625,0,0,0,0,0
1.638,4.1875,0,0,0,0,0
1.639,4.375,0,0,0,0,0
1.64,4.25,0,0,0,0,0
1.641,4.0625,0,0,0,0,0
1.642,4.0625,0,0,0,0,0
1.643,4.375,0,0,0,0,0
1.644,5.125,0,0,0,0,0
1.645,5.625,0,0,0,0,0
1.646,5.625,0,0,0,0,0
1.647,5,0,0,0,0,0
1.648,4.6875,0,0,0,0,0
1.649,4.375,0,0,0,0,0
1.65,4.25,0,0,0,0,0
1.651,4.0625,0,0,0,0,0
1.652,4.1875,0,0,0,0,0
1.653,4.375,0,0,0,0,0
1.654,4.1875,0,0,0,0,0
1.655,4.375,0,0,0,0,0
1.656,4.375,0,0,0,0,0
1.657,4.375,0,0,0,0,0
1.658,4.0625,0,0,0,0,0
1.659,4.0625,0,0,0,0,0
1.66,4.5,0,0,0,0,0
1.661,4.6875,0,0,0,0,0
1.662,4.5625,0,0,0,0,0
1.663,4.6875,0,0,0,0,0
1.664,4.5625,0,0,0,0,0
1.665,4.6875,0,0,0,0,0
1.666,4.25,0,0,0,0,0
1.667,4.375,0,0,0,0,0
1.668,4.1875,0,0,0,0,0
1.669,4.375,0,0,0,0,0
1.67,4.25,0,0,0,0,0
1.671,4.0625,0,0,0,0,0
1.672,4.8125,0,0,0,0,0
1.673,5.3125,0,0,0,0,0
1.674,5.1875,0,0,0,0,0
1.675,5,0,0,0,0,0
1.676,4.6875,0,0,0,0,0
1.677,4.375,0,0,0,0,0
1.678,4.375,0,0,0,0,0
1.679,4.6875,0,0,0,0,0
1.68,3.75,0,0,0,0,0
1.681,3.125,0,0,0,0,0
1.682,3.875,0,0,0,0,0
1.683,4.0625,0,0,0,0,0
1.684,3.875,0,0,0,0,0
1.685,4.0625,0,0,0,0,0
1.686,4.1875,0,0,0,0,0
1.687,4.375,0,0,0,0,0
1.688,3.75,0,0,0,0,0
1.689,4.0625,0,0,0,0,0
1.69,4.1875,0,0,0,0,0
1.691,4.375,0,0,0,0,0
1.692,4.6875,0,0,0,0,0
1.693,5,0,0,0,0,0
1.694,5.1875,0,0,0,0,0
1.695,5,0,0,0,0,0
1.696,5,0,0,0,0,0
1.697,4.6875,0,0,0,0,0
1.698,4.5,0,0,0,0,0
1.699,4.375,0,0,0,0,0
1.7,3.75,0,0,0,0,0
1.701,3.75,0,0,0,0,0
1.702,3.75,0,0,0,0,0
1.703,4.0625,0,0,0,0,0
1.704,4.5,0,0,0,0,0
1.705,5,0,0,0,0,0
1.706,4.875,0,0,0,0,0
1.707,4.375,0,0,0,0,0
1.708,3.75,0,0,0,0,0
1.709,3.75,0,0,0,0,0
1.71,4.0625,0,0,0,0,0
1.711,4.375,0,0,0,0,0
1.712,4.1875,0,0,0,0,0
1.713,4.6875,0,0,0,0,0
1.714,4.1875,0,0,0,0,0
1.715,4.0625,0,0,0,0,0
1.716,4.375,0,0,0,0,0
1.717,4.375,0,0,0,0,0
1.718,4.375,0,0,0,0,0
1.719,4.375,0,0,0,0,0
1.72,4.6875,0,0,0,0,0
1.721,4.375,0,0,0,0,0
1.722,4.25,0,0,0,0,0
1.723,4.0625,0,0,0,0,0
1.724,3.9375,0,0,0,0,0
1.725,4.375,0,0,0,0,0
1.726,4.6875,0,0,0,0,0
1.727,5.3125,0,0,0,0,0
1.728,6.0625,0,0,0,0,0
1.729,6.25,0,0,0,0,0
1.73,6.4375,0,0,0,0,0
1.731,6.25,0,0,0,0,0
1.732,5.9375,0,0,0,0,0
1.733,6.25,0,0,0,0,0
1.734,6.5625,0,0,0,0,0
1.735,6.875,0,0,0,0,0
1.736,6.4375,0,0,0,0,0
1.737,6.875,0,0,0,0,0
1.738,6.75,0,0,0,0,0
1.739,6.5625,0,0,0,0,0
1.74,6.75,0,0,0,0,0
1.741,6.5625,0,0,0,0,0
1.742,7,0,0,0,0,0
1.743,8.125,0,0,0,0,0
1.744,8.75,0,0,0,0,0
1.745,8.75,0,0,0,0,0
1.746,8.75,0,0,0,0,0
1.747,8.4375,0,0,0,0,0
1.748,9.0625,0,0,0,0,0
1.749,9.6875,0,0,0,0,0
1.75,8.9375,0,0,0,0,0
1.751,8.4375,0,0,0,0,0
1.752,8.125,0,0,0,0,0
1.753,8.4375,0,0,0,0,0
1.754,8.125,0,0,0,0,0
1.755,8.4375,0,0,0,0,0
1.756,8.875,0,0,0,0,0
1.757,9.375,0,0,0,0,0
1.758,9.5625,0,0,0,0,0
1.759,9.375,0,0,0,0,0
1.76,9.5625,0,0,0,0,0
1.761,9.375,0,0,0,0,0
1.762,9.0625,0,0,0,0,0
1.763,8.75,0,0,0,0,0
1.764,8.9375,0,0,0,0,0
1.765,8.4375,0,0,0,0,0
1.766,8,0,0,0,0,0
1.767,7.8125,0,0,0,0,0
1.768,8.25,0,0,0,0,0
1.769,8.75,0,0,0,0,0
1.77,8.75,0,0,0,0,0
1.771,8.75,0,0,0,0,0
1.772,8.75,0,0,0,0,0
1.773,8.75,0,0,0,0,0
1.774,8.625,0,0,0,0,0
1.775,8.75,0,0,0,0,0
1.776,8.25,0,0,0,0,0
1.777,8.4375,0,0,0,0,0
1.778,8.5625,0,0,0,0,0
1.779,8.4375,0,0,0,0,0
1.78,8.4375,0,0,0,0,0
1.781,8.125,0,0,0,0,0
1.782,8.125,0,0,0,0,0
1.783,7.8125,0,0,0,0,0
1.784,8.125,0,0,0,0,0
1.785,7.8125,0,0,0,0,0
1.786,7.9375,0,0,0,0,0
1.787,8.75,0,0,0,0,0
1.788,8.5625,0,0,0,0,0
1.789,8.4375,0,0,0,0,0
1.79,7.5,0,0,0,0,0
1.791,6.875,0,0,0,0,0
1.792,6.75,0,0,0,0,0
1.793,6.5625,0,0,0,0,0
1.794,6.6875,0,0,0,0,0
1.795,6.5625,0,0,0,0,0
1.796,6.25,0,0,0,0,0
1.797,6.25,0,0,0,0,0
1.798,5.625,0,0,0,0,0
1.799,5,0,0,0,0,0
1.8,5.125,0,0,0,0,0
1.801,4.6875,0,0,0,0,0
1.802,4.6875,0,0,0,0,0
1.803,4.6875,0,0,0,0,0
1.804,4.6875,0,0,0,0,0
1.805,4.6875,0,0,0,0,0
1.806,4.875,0,0,0,0,0
1.807,5,0,0,0,0,0
1.808,4.8125,0,0,0,0,0
1.809,5,0,0,0,0,0
1.81,4.5625,0,0,0,0,0
1.811,4.6875,0,0,0,0,0
1.812,4.375,0,0,0,0,0
1.813,4.0625,0,0,0,0,0
1.814,4.375,0,0,0,0,0
1.815,3.75,0,0,0,0,0
1.816,3.75,0,0,0,0,0
1.817,4.0625,0,0,0,0,0
1.818,4.375,0,0,0,0,0
1.819,4.6875,0,0,0,0,0
1.82,4.8125,0,0,0,0,0
1.821,4.6875,0,0,0,0,0
1.822,4.25,0,0,0,0,0
1.823,4.0625,0,0,0,0,0
1.824,3.625,0,0,0,0,0
1.825,3.125,0,0,0,0,0
1.826,3.25,0,0,0,0,0
1.827,3.125,0,0,0,0,0
1.828,3.4375,0,0,0,0,0
1.829,3.4375,0,0,0,0,0
1.83,3.125,0,0,0,0,0
1.831,2.8125,0,0,0,0,0
1.832,2.375,0,0,0,0,0
1.833,2.1875,0,0,0,0,0
1.834,2,0,0,0,0,0
1.835,2.5,0,0,0,0,0
1.836,2.625,0,0,0,0,0
1.837,3.125,0,0,0,0,0
1.838,3.4375,0,0,0,0,0
1.839,3.4375,0,0,0,0,0
1.84,3.625,0,0,0,0,0
1.841,3.125,0,0,0,0,0
1.842,3.4375,0,0,0,0,0
1.843,2.8125,0,0,0,0,0
1.844,2.8125,0,0,0,0,0
1.845,2.8125,0,0,0,0,0
1.846,2.8125,0,0,0,0,0
1.847,2.5,0,0,0,0,0
1.848,2.0625,0,0,0,0,0
1.849,1.875,0,0,0,0,0
1.85,2.5,0,0,0,0,0
1.851,2.8125,0,0,0,0,0
1.852,2.8125,0,0,0,0,0
1.853,2.8125,0,0,0,0,0
1.854,2.625,0,0,0,0,0
1.855,2.5,0,0,0,0,0
1.856,2.6875,0,0,0,0,0
1.857,2.5,0,0,0,0,0
1.858,2.6875,0,0,0,0,0
1.859,2.5,0,0,0,0,0
1.86,3.5625,0,0,0,0,0
1.861,4.0625,0,0,0,0,0
1.862,3.75,0,0,0,0,0
1.863,3.125,0,0,0,0,0
1.864,3.3125,0,0,0,0,0
1.865,3.4375,0,0,0,0,0
1.866,3.4375,0,0,0,0,0
1.867,3.125,0,0,0,0,0
1.868,2.9375,0,0,0,0,0
1.869,3.4375,0,0,0,0,0
1.87,2.5,0,0,0,0,0
1.871,2.8125,0,0,0,0,0
1.872,2.375,0,0,0,0,0
1.873,2.5,0,0,0,0,0
1.874,2.8125,0,0,0,0,0
1.875,3.4375,0,0,0,0,0
1.876,3,0,0,0,0,0
1.877,2.8125,0,0,0,0,0
1.878,2.5,0,0,0,0,0
1.879,2.1875,0,0,0,0,0
1.88,2.625,0,0,0,0,0
1.881,2.5,0,0,0,0,0
1.882,2.5,0,0,0,0,0
1.883,2.8125,0,0,0,0,0
1.884,3.5625,0,0,0,0,0
1.885,3.75,0,0,0,0,0
1.886,3.4375,0,0,0,0,0
1.887,3.4375,0,0,0,0,0
1.888,3.625,0,0,0,0,0
1.889,3.75,0,0,0,0,0
1.89,3.3125,0,0,0,0,0
1.891,3.4375,0,0,0,0,0
1.892,3.4375,0,0,0,0,0
1.893,3.75,0,0,0,0,0
1.894,3.5625,0,0,0,0,0
1.895,4.0625,0,0,0,0,0
1.896,3.4375,0,0,0,0,0
1.897,3.4375,0,0,0,0,0
1.898,3.5625,0,0,0,0,0
1.899,3.4375,0,0,0,0,0
1.9,3.4375,0,0,0,0,0
1.901,3.4375,0,0,0,0,0
1.902,3.5625,0,0,0,0,0
1.903,3.125,0,0,0,0,0
1.904,3.4375,0,0,0,0,0
1.905,3.4375,0,0,0,0,0
1.906,3.25,0,0,0,0,0
1.907,3.125,0,0,0,0,0
1.908,2.6875,0,0,0,0,0
1.909,2.5,0,0,0,0,0
1.91,2.3125,1,0,0,0,0
1.911,2.5,0,0,0,0,0
1.912,2.375,0,0,0,0,0
1.913,2.5,0,0,0,0,0
1.914,2.9375,0,0,0,0,0
1.915,3.75,0,0,0,0,0
1.916,3.4375,0,0,0,0,0
1.917,3.125,0,0,0,0,0
1.918,3.625,0,0,0,0,0
1.919,3.75,0,0,0,0,0
1.92,3.625,0,0,0,0,0
1.921,3.75,0,0,0,0,0
1.922,3.625,0,0,0,0,0
1.923,3.4375,0,0,0,0,0
1.924,4.1875,0,0,0,0,0
1.925,4.0625,0,0,0,0,0
1.926,4.6875,0,0,0,0,0
1.927,5,0,0,0,0,0
1.928,5.75,0,0,0,0,0
1.929,6.875,0,0,0,0,0
1.93,6.875,0,0,0,0,0
1.931,6.875,0,0,0,0,0
1.932,7.1875,0,0,0,0,0
1.933,7.5,0,0,0,0,0
1.934,9.0625,0,0,0,0,0
1.935,10.625,0,0,0,0,0
1.936,12.5,0,0,0,0,0
1.937,14.375,0,0,0,0,0
1.938,15.625,0,0,0,0,0
1.939,16.563,0,0,0,0,0
1.94,17.313,0,0,0,0,0
1.941,17.5,0,0,0,0,0
1.942,18.438,0,0,0,0,0
1.943,19.063,0,0,0,0,0
1.944,18.75,0,1,0,0,0
1.945,18.75,0,0,0,0,0
1.946,18.625,0,0,0,0,0
1.947,18.75,0,0,0,0,0
1.948,18.438,0,0,0,0,0
1.949,18.75,0,0,0,0,0
1.95,18.75,0,0,0,0,0
1.951,18.438,0,0,0,0,0
1.952,18.438,0,0,0,0,0
1.953,18.125,0,0,0,0,0
1.954,18.438,0,0,0,0,0
1.955,18.438,0,0,0,0,0
1.956,17.625,0,0,0,0,0
1.957,15.313,0,0,0,0,0
1.958,12.688,0,0,0,0,0
1.959,10.625,0,0,0,0,0
1.96,10.438,0,0,0,0,0
1.961,10.313,0,0,0,0,0
1.962,9.25,0,0,0,0,0
1.963,8.125,0,0,0,0,0
1.964,7.1875,0,0,0,0,0
1.965,7.5,0,0,0,0,0
1.966,8.125,0,0,0,0,0
1.967,9.375,0,0,0,0,0
1.968,11.375,0,0,0,0,0
1.969,13.75,0,0,0,0,0
1.97,15.438,0,0,0,0,0
1.971,16.563,0,0,0,0,0
1.972,16.75,0,0,0,0,0
1.973,15.625,0,0,0,0,0
1.974,16.688,0,0,0,0,0
1.975,17.813,0,0,0,0,0
1.976,17.625,0,0,0,0,0
1.977,17.813,0,0,0,0,0
1.978,18.125,0,0,0,0,0
1.979,18.75,0,0,0,0,0
1.98,17.688,0,0,0,0,0
1.981,15.938,0,0,0,0,0
1.982,14.563,0,0,0,0,0
1.983,13.75,0,0,0,0,0
1.984,12.5,0,0,0,0,0
1.985,11.563,0,0,0,0,0
1.986,10.625,0,0,0,0,0
1.987,9.6875,0,0,0,0,0
1.988,8.9375,0,0,0,0,0
1.989,8.125,0,0,0,0,0
1.99,7.5,0,0,0,0,0
1.991,7.1875,0,0,0,0,0
1.992,7.1875,0,0,0,0,0
1.993,7.1875,0,0,0,0,0
1.994,6.25,0,0,0,0,0
1.995,5.3125,0,0,0,0,0
1.996,5.4375,0,0,0,0,0
1.997,5.625,0,0,0,0,0
1.998,5.125,0,0,0,0,0
1.999,5.3125,0,0,0,0,0
2,6.0625,0,0,0,0,0
2.001,7.1875,0,0,0,0,0
2.002,6.875,0,0,0,0,0
2.003,7.1875,0,0,0,0,0
2.004,7.1875,0,0,0,0,0
2.005,6.5625,0,0,0,0,0
2.006,5.625,0,0,0,0,0
2.007,5,0,0,0,0,0
2.008,4.375,0,0,0,0,0
2.009,3.75,0,0,0,0,0
2.01,2.8125,0,0,0,0,0
2.011,2.1875,0,0,0,0,0
2.012,2.1875,0,0,0,0,0
2.013,1.875,0,0,0,0,0
2.014,1.875,0,0,0,0,0
2.015,2.1875,0,0,0,0,0
2.016,2,0,0,0,0,0
2.017,1.875,0,0,0,0,0
2.018,1.25,0,0,0,0,0
2.019,0.9375,0,0,0,0,0
2.02,0.8125,0,0,0,0,0
2.021,0.9375,0,0,0,0,0
2.022,0.9375,0,0,0,0,0
2.023,0.9375,0,0,0,0,0
2.024,0.3125,0,0,0,0,0
2.025,0.625,0,0,0,0,0
2.026,0.5,0,0,0,0,0
2.027,0.3125,0,0,0,0,0
2.028,-0.125,0,0,0,0,0
2.029,-0.3125,0,0,0,0,0
2.03,0.1875,0,0,0,0,0
2.031,0.3125,0,0,0,0,0
2.032,0.125,0,0,0,0,0
2.033,-0.3125,0,0,0,0,0
2.034,-0.9375,0,0,0,0,0
2.035,-1.5625,0,0,0,0,0
2.036,-1.375,0,0,0,0,0
2.037,-1.5625,0,0,0,0,0
2.038,-1.125,0,0,0,0,0
2.039,-0.3125,0,0,0,0,0
2.04,0,0,0,0,0,0
2.041,0.3125,0,0,0,0,0
2.042,1.6875,0,0,0,0,0
2.043,2.5,0,0,0,0,0
2.044,2.8125,0,0,0,0,0
2.045,3.75,0,0,0,0,0
2.046,2.375,0,0,0,0,0
2.047,1.875,0,0,0,0,0
2.048,1.75,0,0,0,0,0
2.049,1.25,0,0,0,0,0
2.05,1.25,0,0,0,0,0
2.051,0.9375,0,0,0,0,0
2.052,1.25,0,0,0,0,0
2.053,1.5625,0,0,0,0,0
2.054,1.75,0,0,0,0,0
2.055,1.5625,0,0,0,0,0
2.056,1.6875,0,0,0,0,0
2.057,2.1875,0,0,0,0,0
2.058,1.5625,0,0,0,0,0
2.059,1.875,0,0,0,0,0
2.06,1.4375,0,0,0,0,0
2.061,1.5625,0,0,0,0,0
2.062,1.875,0,0,0,0,0
2.063,2.5,0,0,0,0,0
2.064,2.8125,0,0,0,0,0
2.065,3.4375,0,0,0,0,0
2.066,3.5625,0,0,0,0,0
2.067,3.75,0,0,0,0,0
2.068,3.625,0,0,0,0,0
2.069,3.4375,0,0,0,0,0
2.07,3.75,0,0,0,0,0
2.071,4.0625,0,0,0,0,0
2.072,4.5625,0,0,0,0,0
2.073,4.375,0,0,0,0,0
2.074,5.125,0,0,1,0,0
2.075,5.9375,0,0,0,0,0
2.076,5.3125,0,0,0,0,0
2.077,5,0,0,0,0,0
2.078,4.5625,0,0,0,0,0
2.079,3.75,0,0,0,0,0
2.08,3.625,0,0,0,0,0
2.081,3.125,0,0,0,0,0
2.082,3.4375,0,0,0,0,0
2.083,3.75,0,0,0,0,0
2.084,4.6875,0,0,0,0,0
2.085,5.3125,0,0,0,0,0
2.086,5.625,0,0,0,0,0
2.087,5.625,0,0,0,0,0
2.088,6.0625,0,0,0,0,0
2.089,5.9375,0,0,0,0,0
2.09,5.75,0,0,0,0,0
2.091,5.9375,0,0,0,0,0
2.092,5.3125,0,0,0,0,0
2.093,4.375,0,0,0,0,0
2.094,4.5625,0,0,0,0,0
2.095,4.0625,0,0,0,0,0
2.096,4.5,0,0,0,0,0
2.097,5,0,0,0,0,0
2.098,5,0,0,0,0,0
2.099,6.25,0,0,0,0,0
2.1,5.625,0,0,0,0,0
2.101,5.625,0,0,0,0,0
2.102,5,0,0,0,0,0
2.103,5,0,0,0,0,0
2.104,5,0,0,0,0,0
2.105,5,0,0,0,0,0
2.106,5,0,0,0,0,0
2.107,4.375,0,0,0,0,0
2.108,4.0625,0,0,0,0,0
2.109,4.0625,0,0,0,0,0
2.11,4.6875,0,0,0,0,0
2.111,5,0,0,0,0,0
2.112,5.5,0,0,0,0,0
2.113,5,0,0,0,0,0
2.114,4.6875,0,0,0,0,0
2.115,4.6875,0,0,0,0,0
2.116,4.25,0,0,0,0,0
2.117,4.375,0,0,0,0,0
2.118,5,0,0,0,0,0
2.119,5.3125,0,0,0,0,0
2.12,5.3125,0,0,0,0,0
2.121,5,0,0,0,0,0
2.122,4.875,0,0,0,0,0
2.123,4.6875,0,0,0,0,0
2.124,4.6875,0,0,0,0,0
2.125,4.6875,0,0,0,0,0
2.126,4.25,0,0,0,0,0
2.127,4.375,0,0,0,0,0
2.128,5.3125,0,0,0,0,0
2.129,5,0,0,0,0,0
2.13,4.875,0,0,0,0,0
2.131,4.6875,0,0,0,0,0
2.132,4.8125,0,0,0,0,0
2.133,5,0,0,0,0,0
2.134,4.8125,0,0,0,0,0
2.135,5,0,0,0,0,0
2.136,5,0,0,0,0,0
2.137,5,0,0,0,0,0
2.138,5.125,0,0,0,0,0
2.139,5.625,0,0,0,0,0
2.14,5.625,0,0,0,0,0
2.141,5.3125,0,0,0,0,0
2.142,5.5,0,0,0,0,0
2.143,4.6875,0,0,0,0,0
2.144,4.5,0,0,0,0,0
2.145,4.6875,0,0,0,0,0
2.146,4.5625,0,0,0,0,0
2.147,4.375,0,0,0,0,0
2.148,3.9375,0,0,0,0,0
2.149,4.0625,0,0,0,0,0
2.15,4.6875,0,0,0,0,0
2.151,4.6875,0,0,0,0,0
2.152,4.375,0,0,0,0,0
2.153,4.375,0,0,0,0,0
2.154,4.5,0,0,0,0,0
2.155,4.375,0,0,0,0,0
2.156,4.0625,0,0,0,0,0
2.157,4.375,0,0,0,0,0
2.158,4.5,0,0,0,0,0
2.159,4.375,0,0,0,0,0
2.16,4.5,0,0,0,0,0
2.161,5.3125,0,0,0,0,0
2.162,5.125,0,0,0,0,0
2.163,5,0,0,0,0,0
2.164,5.1875,0,0,0,0,0
2.165,5,0,0,0,0,0
2.166,5,0,0,0,0,0
2.167,4.6875,0,0,0,0,0
2.168,4.375,0,0,0,0,0
2.169,3.75,0,0,0,0,0
2.17,3.75,0,0,0,0,0
2.171,3.4375,0,0,0,0,0
2.172,3.875,0,0,0,0,0
2.173,3.75,0,0,0,0,0
2.174,4.6875,0,0,0,0,0
2.175,4.6875,0,0,0,0,0
2.176,4.375,0,0,0,0,0
2.177,4.375,0,0,0,0,0
2.178,5,0,0,0,0,0
2.179,4.375,0,0,0,0,0
2.18,4.6875,0,0,0,0,0
2.181,4.6875,0,0,0,0,0
2.182,4.8125,0,0,0,0,0
2.183,5,0,0,0,0,0
2.184,4.5625,0,0,0,0,0
2.185,4.0625,0,0,0,0,0
2.186,3.9375,0,0,0,0,0
2.187,3.4375,0,0,0,0,0
2.188,4.0625,0,0,0,0,0
2.189,4.375,0,0,0,0,0
2.19,3.9375,0,0,0,0,0
2.191,3.4375,0,0,0,0,0
2.192,4.0625,0,0,0,0,0
2.193,3.75,0,0,0,0,0
2.194,3.75,0,0,0,0,0
2.195,3.4375,0,0,0,0,0
2.196,3.5625,0,0,0,0,0
2.197,3.75,0,0,0,0,0
2.198,3.4375,0,0,0,0,0
2.199,3.75,0,0,0,0,0
2.2,3.125,0,0,0,0,0
2.201,2.5,0,0,0,0,0
2.202,2.9375,0,0,0,0,0
2.203,4.0625,0,0,0,0,0
2.204,3.875,0,0,0,0,0
2.205,4.375,0,0,0,0,0
2.206,3.9375,0,0,0,0,0
2.207,3.75,0,0,0,0,0
2.208,3.75,0,0,0,0,0
2.209,3.75,0,0,0,0,0
2.21,3.125,0,0,0,0,0
2.211,3.75,0,0,0,0,0
2.212,3.5625,0,0,0,0,0
2.213,3.4375,0,0,0,0,0
2.214,3.9375,0,0,0,0,0
2.215,3.75,0,0,0,0,0
2.216,3.5625,0,0,0,0,0
2.217,3.75,0,0,0,0,0
2.218,3.9375,0,0,0,0,0
2.219,3.75,0,0,0,0,0
2.22,3.625,0,0,0,0,0
2.221,3.4375,0,0,0,0,0
2.222,3.4375,0,0,0,0,0
2.223,3.4375,0,0,0,0,0
2.224,3.625,0,0,0,0,0
2.225,3.75,0,0,0,0,0
2.226,4.375,0,0,0,0,0
2.227,5.3125,0,0,0,0,0
2.228,4.875,0,0,0,0,0
2.229,4.375,0,0,0,0,0
2.23,4.1875,0,0,0,0,0
2.231,4.0625,0,0,0,0,0
2.232,4.375,0,0,0,0,0
2.233,4.375,0,0,0,0,0
2.234,4.6875,0,0,0,0,0
2.235,5,0,0,0,0,0
2.236,4.8125,0,0,0,0,0
2.237,5,0,0,0,0,0
2.238,5.3125,0,0,0,0,0
2.239,5.3125,0,0,0,0,0
2.24,5.1875,0,0,0,0,0
2.241,5.3125,0,0,0,0,0
2.242,4.875,0,0,0,0,0
2.243,4.6875,0,0,0,0,0
2.244,5.625,0,0,0,0,0
2.245,5.9375,0,0,0,0,0
2.246,6.0625,0,0,0,0,0
2.247,5.625,0,0,0,0,0
2.248,5.5,0,0,0,0,0
2.249,5,0,0,0,0,0
2.25,5,0,0,0,0,0
2.251,4.6875,0,0,0,0,0
2.252,4.0625,0,0,0,0,0
2.253,4.0625,0,0,0,0,0
2.254,5.125,0,0,0,0,0
2.255,5.625,0,0,0,0,0
2.256,5.3125,0,0,0,0,0
2.257,5.3125,0,0,0,0,0
2.258,6.5625,0,0,0,0,0
2.259,7.1875,0,0,0,0,0
2.26,6.75,0,0,0,0,0
2.261,7.1875,0,0,0,0,0
2.262,7.1875,0,0,0,0,0
2.263,7.1875,0,0,0,0,0
2.264,6.875,0,0,0,0,0
2.265,6.875,0,0,0,0,0
2.266,6.5625,0,0,0,0,0
2.267,6.875,0,0,0,0,0
2.268,7.3125,0,0,0,0,0
2.269,7.1875,0,0,0,0,0
2.27,7,0,0,0,0,0
2.271,7.1875,0,0,0,0,0
2.272,7.9375,0,0,0,0,0
2.273,8.125,0,0,0,0,0
2.274,8.3125,0,0,0,0,0
2.275,8.125,0,0,0,0,0
2.276,8.4375,0,0,0,0,0
2.277,8.75,0,0,0,0,0
2.278,8,0,0,0,0,0
2.279,7.8125,0,0,0,0,0
2.28,7.375,0,0,0,0,0
2.281,7.5,0,0,0,0,0
2.282,7.1875,0,0,0,0,0
2.283,7.1875,0,0,0,0,0
2.284,7.1875,0,0,0,0,0
2.285,7.1875,0,0,0,0,0
2.286,7.3125,0,0,0,0,0
2.287,7.5,0,0,0,0,0
2.288,8.125,0,0,0,0,0
2.289,8.4375,0,0,0,0,0
2.29,8,0,0,0,0,0
2.291,8.125,0,0,0,0,0
2.292,8.4375,0,0,0,0,0
2.293,8.125,0,0,0,0,0
2.294,8.3125,0,0,0,0,0
2.295,8.125,0,0,0,0,0
2.296,8,0,0,0,0,0
2.297,7.5,0,0,0,0,0
2.298,7.375,0,0,0,0,0
2.299,7.5,0,0,0,0,0
2.3,7.625,0,0,0,0,0
2.301,8.4375,0,0,0,0,0
2.302,8.125,0,0,0,0,0
2.303,8.75,0,0,0,1,0
2.304,8.875,0,0,0,0,0
2.305,8.75,0,0,0,0,0
2.306,8.4375,0,0,0,0,0
2.307,8.125,0,0,0,0,0
2.308,7.6875,0,0,0,0,0
2.309,7.8125,0,0,0,0,0
2.31,7.8125,0,0,0,0,0
2.311,7.1875,0,0,0,0,0
2.312,7.1875,0,0,0,0,0
2.313,7.5,0,0,0,0,0
2.314,7.8125,0,0,0,0,0
2.315,7.5,0,0,0,0,0
2.316,7.5,0,0,0,0,0
2.317,7.1875,0,0,0,0,0
2.318,6.75,0,0,0,0,0
2.319,6.875,0,0,0,0,0
2.32,7.1875,0,0,0,0,0
2.321,7.1875,0,0,0,0,0
2.322,6.875,0,0,0,0,0
2.323,7.1875,0,0,0,0,0
2.324,7.3125,0,0,0,0,0
2.325,7.1875,0,0,0,0,0
2.326,6.875,0,0,0,0,0
2.327,6.25,0,0,0,0,0
2.328,6.125,0,0,0,0,0
2.329,5.3125,0,0,0,0,0
2.33,4.875,0,0,0,0,0
2.331,3.75,0,0,0,0,0
2.332,4.1875,0,0,0,0,0
2.333,5,0,0,0,0,0
2.334,5.75,0,0,0,0,0
2.335,6.25,0,0,0,0,0
2.336,6.0625,0,0,0,0,0
2.337,6.25,0,0,0,0,0
2.338,5.9375,0,0,0,0,0
2.339,5.625,0,0,0,0,0
2.34,5.3125,0,0,0,0,0
2.341,5.3125,0,0,0,0,0
2.342,4.875,0,0,0,0,0
2.343,4.6875,0,0,0,0,0
2.344,5.125,0,0,0,0,0
2.345,5,0,0,0,0,0
2.346,5.3125,0,0,0,0,0
2.347,5.3125,0,0,0,0,0
2.348,5.4375,0,0,0,0,0
2.349,5.625,0,0,0,0,0
2.35,5.5,0,0,0,0,0
2.351,5.3125,0,0,0,0,0
2.352,5.3125,0,0,0,0,0
2.353,4.6875,0,0,0,0,0
2.354,5,0,0,0,0,0
2.355,5,0,0,0,0,0
2.356,5,0,0,0,0,0
2.357,4.6875,0,0,0,0,0
2.358,4.6875,0,0,0,0,1
2.359,4.6875,0,0,0,0,0
2.36,4.5625,0,0,0,0,0
2.361,4.375,0,0,0,0,0
2.362,4.1875,0,0,0,0,0
2.363,4.0625,0,0,0,0,0
2.364,4.0625,0,0,0,0,0
2.365,4.375,0,0,0,0,0
2.366,4.5625,0,0,0,0,0
2.367,4.375,0,0,0,0,0
2.368,4.0625,0,0,0,0,0
2.369,4.0625,0,0,0,0,0
2.37,4.0625,0,0,0,0,0
2.371,3.4375,0,0,0,0,0
2.372,3.875,0,0,0,0,0
2.373,3.4375,0,0,0,0,0
2.374,4.5,0,0,0,0,0
2.375,5,0,0,0,0,0
2.376,4.25,0,0,0,0,0
2.377,3.75,0,0,0,0,0
2.378,3,0,0,0,0,0
2.379,3.125,0,0,0,0,0
2.38,4.0625,0,0,0,0,0
2.381,4.0625,0,0,0,0,0
2.382,3.75,0,0,0,0,0
2.383,3.4375,0,0,0,0,0
2.384,3.875,0,0,0,0,0
2.385,3.75,0,0,0,0,0
2.386,4.375,0,0,0,0,0
2.387,4.375,0,0,0,0,0
2.388,4.875,0,0,0,0,0
2.389,4.375,0,0,0,0,0
2.39,4.25,0,0,0,0,0
2.391,4.375,0,0,0,0,0
2.392,4.5,0,0,0,0,0
2.393,5,0,0,0,0,0
2.394,5.3125,0,0,0,0,0
2.395,4.6875,0,0,0,0,0
2.396,3.9375,0,0,0,0,0
2.397,3.75,0,0,0,0,0
2.398,3.75,0,0,0,0,0
2.399,3.75,0,0,0,0,0
2.4,3.5625,0,0,0,0,0
2.401,3.75,0,0,0,0,0
2.402,3.625,0,0,0,0,0
2.403,3.4375,0,0,0,0,0
2.404,3.5625,0,0,0,0,0
2.405,3.4375,0,0,0,0,0
2.406,3.75,0,0,0,0,0
2.407,3.4375,0,0,0,0,0
2.408,3.875,0,0,0,0,0
2.409,4.0625,0,0,0,0,0
2.41,3.75,0,0,0,0,0
2.411,3.125,0,0,0,0,0
2.412,4.0625,0,0,0,0,0
2.413,4.0625,0,0,0,0,0
2.414,4.1875,0,0,0,0,0
2.415,4.6875,0,0,0,0,0
2.416,4.5625,0,0,0,0,0
2.417,4.375,0,0,0,0,0
2.418,4.6875,0,0,0,0,0
2.419,4.6875,0,0,0,0,0
2.42,5,0,0,0,0,0
2.421,5,0,0,0,0,0
2.422,4.25,0,0,0,0,0
2.423,4.0625,0,0,0,0,0
2.424,4.25,0,0,0,0,0
2.425,4.375,0,0,0,0,0
2.426,4.8125,0,0,0,0,0
2.427,4.6875,0,0,0,0,0
2.428,4.25,0,0,0,0,0
2.429,4.0625,0,0,0,0,0
2.43,3.625,0,0,0,0,0
2.431,3.75,0,0,0,0,0
2.432,3.5625,0,0,0,0,0
2.433,3.75,0,0,0,0,0
2.434,3.4375,0,0,0,0,0
2.435,3.125,0,0,0,0,0
2.436,3.125,0,0,0,0,0
2.437,3.125,0,0,0,0,0
2.438,3.4375,0,0,0,0,0
2.439,3.75,0,0,0,0,0
2.44,3.75,0,0,0,0,0
2.441,4.0625,0,0,0,0,0
2.442,4.1875,0,0,0,0,0
2.443,4.375,0,0,0,0,0
2.444,4.1875,0,0,0,0,0
2.445,4.375,0,0,0,0,0
2.446,4.25,0,0,0,0,0
2.447,4.0625,0,0,0,0,0
2.448,4.1875,0,0,0,0,0
2.449,4.0625,0,0,0,0,0
2.45,3.9375,0,0,0,0,0
2.451,4.0625,0,0,0,0,0
2.452,4.375,0,0,0,0,0
2.453,4.0625,0,0,0,0,0
2.454,4.1875,0,0,0,0,0
2.455,4.375,0,0,0,0,0
2.456,3.625,0,0,0,0,0
2.457,3.125,0,0,0,0,0
2.458,3.3125,0,0,0,0,0
2.459,3.125,0,0,0,0,0
2.46,3.5625,0,0,0,0,0
2.461,3.4375,0,0,0,0,0
2.462,4.0625,0,0,0,0,0
2.463,4.0625,0,0,0,0,0
2.464,3.9375,0,0,0,0,0
2.465,3.75,0,0,0,0,0
2.466,3.625,0,0,0,0,0
2.467,3.75,0,0,0,0,0
2.468,3.75,0,0,0,0,0
2.469,3.75,0,0,0,0,0
2.47,3.75,0,0,0,0,0
2.471,3.4375,0,0,0,0,0
2.472,3.125,0,0,0,0,0
2.473,3.125,0,0,0,0,0
2.474,3.4375,0,0,0,0,0
2.475,3.125,0,0,0,0,0
2.476,3,0,0,0,0,0
2.477,3.4375,0,0,0,0,0
2.478,3.125,0,0,0,0,0
2.479,2.5,0,0,0,0,0
2.48,2.5,0,0,0,0,0
2.481,2.5,0,0,0,0,0
2.482,2.5,0,0,0,0,0
2.483,2.1875,0,0,0,0,0
2.484,2.6875,0,0,0,0,0
2.485,2.5,0,0,0,0,0
2.486,2.375,0,0,0,0,0
2.487,1.875,0,0,0,0,0
2.488,1.5625,0,0,0,0,0
2.489,1.875,0,0,0,0,0
2.49,1.875,0,0,0,0,0
2.491,2.1875,0,0,0,0,0
2.492,2.3125,0,0,0,0,0
2.493,2.1875,0,0,0,0,0
2.494,2.1875,0,0,0,0,0
2.495,2.5,0,0,0,0,0
2.496,3,0,0,0,0,0
2.497,2.8125,0,0,0,0,0
2.498,3.25,0,0,0,0,0
2.499,3.125,0,0,0,0,0
2.5,2.6875,0,0,0,0,0
2.501,2.8125,0,0,0,0,0
2.502,2.9375,0,0,0,0,0
2.503,2.5,0,0,0,0,0
2.504,2.6875,0,0,0,0,0
2.505,2.1875,0,0,0,0,0
2.506,2.1875,0,0,0,0,0
2.507,1.875,0,0,0,0,0
2.508,2.1875,0,0,0,0,0
2.509,2.5,0,0,0,0,0
2.51,2.5,0,0,0,0,0
2.511,3.125,0,0,0,0,0
2.512,3.125,0,0,0,0,0
2.513,3.125,0,0,0,0,0
2.514,3.5625,0,0,0,0,0
2.515,2.8125,0,0,0,0,0
2.516,3,0,0,0,0,0
2.517,3.125,0,0,0,0,0
2.518,3,0,0,0,0,0
2.519,3.125,0,0,0,0,0
2.52,3.125,0,0,0,0,0
2.521,3.125,0,0,0,0,0
2.522,3.4375,0,0,0,0,0
2.523,3.4375,0,0,0,0,0
2.524,3.875,0,0,0,0,0
2.525,4.6875,0,0,0,0,0
2.526,4.875,0,0,0,0,0
2.527,4.375,0,0,0,0,0
2.528,4.375,0,0,0,0,0
2.529,4.0625,0,0,0,0,0
2.53,4.8125,0,0,0,0,0
2.531,5.625,0,0,0,0,0
2.532,6.25,0,0,0,0,0
2.533,5.9375,0,0,0,0,0
2.534,6.25,0,0,0,0,0
2.535,6.5625,0,0,0,0,0
2.536,6.6875,0,0,0,0,0
2.537,6.875,0,0,0,0,0
2.538,6.5625,0,0,0,0,0
2.539,6.25,0,0,0,0,0
2.54,6.125,0,0,0,0,0
2.541,5.9375,0,0,0,0,0
2.542,6.25,0,0,0,0,0
2.543,6.5625,0,0,0,0,0
2.544,6.875,0,0,0,0,0
2.545,7.1875,0,0,0,0,0
2.546,7.0625,0,0,0,0,0
2.547,6.875,0,0,0,0,0
2.548,6.75,0,0,0,0,0
2.549,6.5625,0,0,0,0,0
2.55,6.5625,0,0,0,0,0
2.551,6.5625,0,0,0,0,0
2.552,6.6875,0,0,0,0,0
2.553,6.875,0,0,0,0,0
2.554,6.75,0,0,0,0,0
2.555,6.5625,0,0,0,0,0
2.556,6.5625,0,0,0,0,0
2.557,6.5625,0,0,0,0,0
2.558,6.4375,0,0,0,0,0
2.559,6.25,0,0,0,0,0
2.56,6.125,0,0,0,0,0
2.561,5.9375,0,0,0,0,0
2.562,6.0625,0,0,0,0,0
2.563,6.25,0,0,0,0,0
2.564,6.875,0,0,0,0,0
2.565,7.5,0,0,0,0,0
2.566,7.1875,0,0,0,0,0
2.567,6.875,0,0,0,0,0
2.568,6.5625,0,0,0,0,0
2.569,6.25,0,0,0,0,0
2.57,5.625,0,0,0,0,0
2.571,5,0,0,0,0,0
2.572,5.125,0,0,0,0,0
2.573,5.3125,0,0,0,0,0
2.574,5.75,0,0,0,0,0
2.575,6.25,0,0,0,0,0
2.576,6.5625,0,0,0,0,0
2.577,6.875,0,0,0,0,0
2.578,6.4375,0,0,0,0,0
2.579,5.9375,0,0,0,0,0
2.58,5.9375,0,0,0,0,0
2.581,5.9375,0,0,0,0,0
2.582,5.8125,0,0,0,0,0
2.583,5.625,0,0,0,0,0
2.584,5.5,0,0,0,0,0
2.585,5.3125,0,0,0,0,0
2.586,4.5625,0,0,0,0,0
2.587,3.75,0,0,0,0,0
2.588,3.75,0,0,0,0,0
2.589,3.75,0,0,0,0,0
2.59,3.75,0,0,0,0,0
2.591,3.75,0,0,0,0,0
2.592,2.8125,0,0,0,0,0
2.593,1.875,0,0,0,0,0
2.594,2,0,0,0,0,0
2.595,2.1875,0,0,0,0,0
2.596,2.1875,0,0,0,0,0
2.597,2.1875,0,0,0,0,0
2.598,1.875,0,0,0,0,0
2.599,1.5625,0,0,0,0,0
2.6,1.5625,0,0,0,0,0
2.601,1.5625,0,0,0,0,0
2.602,2,0,0,0,0,0
2.603,2.5,0,0,0,0,0
2.604,2.625,0,0,0,0,0
2.605,2.8125,0,0,0,0,0
2.606,2.6875,0,0,0,0,0
2.607,2.5,0,0,0,0,0
2.608,2.375,0,0,0,0,0
2.609,2.1875,0,0,0,0,0
2.61,2.0625,0,0,0,0,0
2.611,1.875,0,0,0,0,0
2.612,2,0,0,0,0,0
2.613,2.1875,0,0,0,0,0
2.614,2.625,0,0,0,0,0
2.615,3.125,0,0,0,0,0
2.616,2.375,0,0,0,0,0
2.617,1.5625,0,0,0,0,0
2.618,1.5625,0,0,0,0,0
2.619,1.5625,0,0,0,0,0
2.62,1.5625,0,0,0,0,0
2.621,1.5625,0,0,0,0,0
2.622,1.25,0,0,0,0,0
2.623,0.9375,0,0,0,0,0
2.624,0.625,0,0,0,0,0
2.625,0.3125,0,0,0,0,0
2.626,0.3125,0,0,0,0,0
2.627,0.3125,0,0,0,0,0
2.628,0.9375,0,0,0,0,0
2.629,1.5625,0,0,0,0,0
2.63,1.4375,0,0,0,0,0
2.631,1.25,0,0,0,0,0
2.632,1.375,0,0,0,0,0
2.633,1.5625,0,0,0,0,0
2.634,1.125,0,0,0,0,0
2.635,0.625,0,0,0,0,0
2.636,0.5,0,0,0,0,0
2.637,0.3125,0,0,0,0,0
2.638,0.4375,0,0,0,0,0
2.639,0.625,0,0,0,0,0
2.64,0.5,0,0,0,0,0
2.641,0.3125,0,0,0,0,0
2.642,0.3125,0,0,0,0,0
2.643,0.3125,0,0,0,0,0
2.644,0.3125,0,0,0,0,0
2.645,0.3125,0,0,0,0,0
2.646,0.4375,0,0,0,0,0
2.647,0.625,0,0,0,0,0
2.648,0.625,0,0,0,0,0
2.649,0.625,0,0,0,0,0
2.65,0.625,0,0,0,0,0
2.651,0.625,0,0,0,0,0
2.652,0.625,0,0,0,0,0
2.653,0.625,0,0,0,0,0
2.654,0.5,0,0,0,0,0
2.655,0.3125,0,0,0,0,0
2.656,0.3125,0,0,0,0,0
2.657,0.3125,0,0,0,0,0
2.658,0.1875,0,0,0,0,0
2.659,0,0,0,0,0,0
2.66,0.125,0,0,0,0,0
2.661,0.3125,0,0,0,0,0
2.662,0.3125,0,0,0,0,0
2.663,0.3125,0,0,0,0,0
2.664,0.4375,0,0,0,0,0
2.665,0.625,0,0,0,0,0
2.666,0.625,0,0,0,0,0
2.667,0.625,0,0,0,0,0
2.668,0.75,0,0,0,0,0
2.669,0.9375,0,0,0,0,0
2.67,0.9375,0,0,0,0,0
2.671,0.9375,0,0,0,0,0
2.672,0.8125,0,0,0,0,0
2.673,0.625,0,0,0,0,0
2.674,0.75,0,0,0,0,0
2.675,0.9375,0,0,0,0,0
2.676,0.9375,0,0,0,0,0
2.677,0.9375,0,0,0,0,0
2.678,1.0625,0,0,0,0,0
2.679,1.25,0,0,0,0,0
2.68,1.125,0,0,0,0,0
2.681,0.9375,0,0,0,0,0
2.682,0.625,0,0,0,0,0
2.683,0.3125,0,0,0,0,0
2.684,0.625,0,0,0,0,0
2.685,0.9375,0,0,0,0,0
2.686,0.9375,0,0,0,0,0
2.687,0.9375,0,0,0,0,0
2.688,0.8125,0,0,0,0,0
2.689,0.625,0,0,0,0,0
2.69,0.9375,0,0,0,0,0
2.691,1.25,0,0,0,0,0
2.692,1.125,0,0,0,0,0
2.693,0.9375,0,0,0,0,0
2.694,0.9375,0,0,0,0,0
2.695,0.9375,0,0,0,0,0
2.696,1.0625,0,0,0,0,0
2.697,1.25,1,0,0,0,0
2.698,1.25,0,0,0,0,0
2.699,1.25,0,0,0,0,0
2.7,0.9375,0,0,0,0,0
2.701,0.625,0,0,0,0,0
2.702,0.1875,0,0,0,0,0
2.703,-0.3125,0,0,0,0,0
2.704,0,0,0,0,0,0
2.705,0.3125,0,0,0,0,0
2.706,0.1875,0,0,0,0,0
2.707,0,0,0,0,0,0
2.708,0.625,0,0,0,0,0
2.709,1.25,0,0,0,0,0
2.71,1.375,0,0,0,0,0
2.711,1.5625,0,0,0,0,0
2.712,2.1875,0,0,0,0,0
2.713,2.8125,0,0,0,0,0
2.714,2.1875,0,0,0,0,0
2.715,1.5625,0,0,0,0,0
2.716,1.875,0,0,0,0,0
2.717,2.1875,0,0,0,0,0
2.718,2.5,0,0,0,0,0
2.719,2.8125,0,0,0,0,0
2.72,3.125,0,0,0,0,0
2.721,3.4375,0,0,0,0,0
2.722,4.8125,0,0,0,0,0
2.723,6.25,0,0,0,0,0
2.724,7.1875,0,0,0,0,0
2.725,8.125,0,0,0,0,0
2.726,9.0625,0,0,0,0,0
2.727,10,0,0,0,0,0
2.728,11.688,0,0,0,0,0
2.729,13.438,0,0,0,0,0
2.73,13.875,0,0,0,0,0
2.731,14.375,0,0,0,0,0
2.732,15.125,0,0,0,0,0
2.733,15.938,0,0,0,0,0
2.734,15.938,0,0,0,0,0
2.735,15.938,0,0,0,0,0
2.736,16.063,0,0,0,0,0
2.737,16.25,0,0,0,0,0
2.738,16.25,0,0,0,0,0
2.739,16.25,0,0,0,0,0
2.74,16.688,0,1,0,0,0
2.741,17.188,0,0,0,0,0
2.742,17.313,0,0,0,0,0
2.743,17.5,0,0,0,0,0
2.744,17.188,0,1,0,0,0
2.745,16.875,0,0,0,0,0
2.746,15.313,0,0,0,0,0
2.747,13.75,0,0,0,0,0
2.748,11.75,0,0,0,0,0
2.749,9.6875,0,0,0,0,0
2.75,8.3125,0,0,0,0,0
2.751,6.875,0,0,0,0,0
2.752,5.625,0,0,0,0,0
2.753,4.375,0,0,0,0,0
2.754,4.375,0,0,0,0,0
2.755,4.375,0,0,0,0,0
2.756,5.9375,0,0,0,0,0
2.757,7.5,0,0,0,0,0
2.758,9.1875,0,0,0,0,0
2.759,10.938,0,0,0,0,0
2.76,12.813,0,0,0,0,0
2.761,14.688,0,0,0,0,0
2.762,14.375,0,0,0,0,0
2.763,14.063,0,0,0,0,0
2.764,14.188,0,0,0,0,0
2.765,14.375,0,0,0,0,0
2.766,14.5,0,0,0,0,0
2.767,14.688,0,0,0,0,0
2.768,14.688,0,0,0,0,0
2.769,14.688,0,0,0,0,0
2.77,14.063,0,0,0,0,0
2.771,13.438,0,0,0,0,0
2.772,11.875,0,0,0,0,0
2.773,10.313,0,0,0,0,0
2.774,10.313,0,0,0,0,0
2.775,10.313,0,0,0,0,0
2.776,9.0625,0,0,0,0,0
2.777,7.8125,0,0,0,0,0
2.778,7.5,0,0,0,0,0
2.779,7.1875,0,0,0,0,0
2.78,6.75,0,0,0,0,0
2.781,6.25,0,0,0,0,0
2.782,5.5,0,0,0,0,0
2.783,4.6875,0,0,0,0,0
2.784,4.8125,0,0,0,0,0
2.785,5,0,0,0,0,0
2.786,4.0625,0,0,0,0,0
2.787,3.125,0,0,0,0,0
2.788,2.6875,0,0,0,0,0
2.789,2.1875,0,0,0,0,0
2.79,2.0625,0,0,0,0,0
2.791,1.875,0,0,0,0,0
2.792,2.9375,0,0,0,0,0
2.793,4.0625,0,0,0,0,0
2.794,3.9375,0,0,0,0,0
2.795,3.75,0,0,0,0,0
2.796,3.4375,0,0,0,0,0
2.797,3.125,0,0,0,0,0
2.798,2.6875,0,0,0,0,0
2.799,2.1875,0,0,0,0,0
2.8,1.4375,0,0,0,0,0
2.801,0.625,0,0,0,0,0
2.802,-0.125,0,0,0,0,0
2.803,-0.9375,0,0,0,0,0
2.804,-0.9375,0,0,0,0,0
2.805,-0.9375,0,0,0,0,0
2.806,-1.6875,0,0,0,0,0
2.807,-2.5,0,0,0,0,0
2.808,-2.625,0,0,0,0,0
2.809,-2.8125,0,0,0,0,0
2.81,-2.6875,0,0,0,0,0
2.811,-2.5,0,0,0,0,0
2.812,-2.5,0,0,0,0,0
2.813,-2.5,0,0,0,0,0
2.814,-2.5,0,0,0,0,0
2.815,-2.5,0,0,0,0,0
2.816,-2.625,0,0,0,0,0
2.817,-2.8125,0,0,0,0,0
2.818,-2.6875,0,0,0,0,0
2.819,-2.5,0,0,0,0,0
2.82,-2.1875,0,0,0,0,0
2.821,-1.875,0,0,0,0,0
2.822,-1.875,0,0,0,0,0
2.823,-1.875,0,0,0,0,0
2.824,-2,0,0,0,0,0
2.825,-2.1875,0,0,0,0,0
2.826,-2.3125,0,0,0,0,0
2.827,-2.5,0,0,0,0,0
2.828,-2.625,0,0,0,0,0
2.829,-2.8125,0,0,0,0,0
2.83,-2.5,0,0,0,0,0
2.831,-2.1875,0,0,0,0,0
2.832,-1.125,0,0,0,0,0
2.833,0,0,0,0,0,0
2.834,0.3125,0,0,0,0,0
2.835,0.625,0,0,0,0,0
2.836,1.0625,0,0,0,0,0
2.837,1.5625,0,0,0,0,0
2.838,1.6875,0,0,0,0,0
2.839,1.875,0,0,0,0,0
2.84,1.5625,0,0,0,0,0
2.841,1.25,0,0,0,0,0
2.842,0.8125,0,0,0,0,0
2.843,0.3125,0,0,0,0,0
2.844,0.4375,0,0,0,0,0
2.845,0.625,0,0,0,0,0
2.846,0.5,0,0,0,0,0
2.847,0.3125,0,0,0,0,0
2.848,0.3125,0,0,0,0,0
2.849,0.3125,0,0,0,0,0
2.85,0.1875,0,0,0,0,0
2.851,0,0,0,0,0,0
2.852,-0.125,0,0,0,0,0
2.853,-0.3125,0,0,0,0,0
2.854,-0.3125,0,0,0,0,0
2.855,-0.3125,0,0,0,0,0
2.856,0.4375,0,0,0,0,0
2.857,1.25,0,0,0,0,0
2.858,1.125,0,0,0,0,0
2.859,0.9375,0,0,0,0,0
2.86,1.375,0,0,1,0,0
2.861,1.875,0,0,0,0,0
2.862,2,0,0,0,0,0
2.863,2.1875,0,0,0,0,0
2.864,2.1875,0,0,0,0,0
2.865,2.1875,0,0,0,0,0
2.866,2.625,0,0,0,0,0
2.867,3.125,0,0,0,0,0
2.868,2.6875,0,0,0,0,0
2.869,2.1875,0,0,0,0,0
2.87,2.1875,0,0,0,0,0
2.871,2.1875,0,0,0,0,0
2.872,2.1875,0,0,0,0,0
2.873,2.1875,0,0,0,0,0
2.874,2.625,0,0,0,0,0
2.875,3.125,0,0,0,0,0
2.876,3.25,0,0,0,0,0
2.877,3.4375,0,0,0,0,0
2.878,2.8125,0,0,0,0,0
2.879,2.1875,0,0,0,0,0
2.88,1.875,0,0,0,0,0
2.881,1.5625,0,0,0,0,0
2.882,1.5625,0,0,0,0,0
2.883,1.5625,0,0,0,0,0
2.884,1.6875,0,0,0,0,0
2.885,1.875,0,0,0,0,0
2.886,1.875,0,0,0,0,0
2.887,1.875,0,0,0,0,0
2.888,2.3125,0,0,0,0,0
2.889,2.8125,0,0,0,0,0
2.89,3.125,0,0,0,0,0
2.891,3.4375,0,0,0,0,0
2.892,3.125,0,0,0,0,0
2.893,2.8125,0,0,0,0,0
2.894,2.8125,0,0,0,0,0
2.895,2.8125,0,0,0,0,0
2.896,2.6875,0,0,0,0,0
2.897,2.5,0,0,0,0,0
2.898,2.5,0,0,0,0,0
2.899,2.5,0,0,0,0,0
2.9,2.5,0,0,0,0,0
2.901,2.5,0,0,0,0,0
2.902,2.375,0,0,0,0,0
2.903,2.1875,0,0,0,0,0
2.904,2.1875,0,0,0,0,0
2.905,2.1875,0,0,0,0,0
2.906,2.1875,0,0,0,0,0
2.907,2.1875,0,0,0,0,0
2.908,2.1875,0,0,0,0,0
2.909,2.1875,0,0,0,0,0
2.91,2.5,0,0,0,0,0
2.911,2.8125,0,0,0,0,0
2.912,2.6875,0,0,0,0,0
2.913,2.5,0,0,0,0,0
2.914,2.375,0,0,0,0,0
2.915,2.1875,0,0,0,0,0
2.916,2.3125,0,0,0,0,0
2.917,2.5,0,0,0,0,0
2.918,3.125,0,0,0,0,0
2.919,3.75,0,0,0,0,0
2.92,3.75,0,0,0,0,0
2.921,3.75,0,0,0,0,0
2.922,3.625,0,0,0,0,0
2.923,3.4375,0,0,0,0,0
2.924,3.4375,0,0,0,0,0
2.925,3.4375,0,0,0,0,0
2.926,3.3125,0,0,0,0,0
2.927,3.125,0,0,0,0,0
2.928,3.125,0,0,0,0,0
2.929,3.125,0,0,0,0,0
2.93,2.6875,0,0,0,0,0
2.931,2.1875,0,0,0,0,0
2.932,2.1875,0,0,0,0,0
2.933,2.1875,0,0,0,0,0
2.934,2.1875,0,0,0,0,0
2.935,2.1875,0,0,0,0,0
2.936,2.0625,0,0,0,0,0
2.937,1.875,0,0,0,0,0
2.938,2,0,0,0,0,0
2.939,2.1875,0,0,0,0,0
2.94,2.8125,0,0,0,0,0
2.941,3.4375,0,0,0,0,0
2.942,3.4375,0,0,0,0,0
2.943,3.4375,0,0,0,0,0
2.944,3.4375,0,0,0,0,0
2.945,3.4375,0,0,0,0,0
2.946,3,0,0,0,0,0
2.947,2.5,0,0,0,0,0
2.948,2.5,0,0,0,0,0
2.949,2.5,0,0,0,0,0
2.95,2.5,0,0,0,0,0
2.951,2.5,0,0,0,0,0
2.952,2.5,0,0,0,0,0
2.953,2.5,0,0,0,0,0
2.954,2.1875,0,0,0,0,0
2.955,1.875,0,0,0,0,0
2.956,2,0,0,0,0,0
2.957,2.1875,0,0,0,0,0
2.958,1.875,0,0,0,0,0
2.959,1.5625,0,0,0,0,0
2.96,1.875,0,0,0,0,0
2.961,2.1875,0,0,0,0,0
2.962,1.75,0,0,0,0,0
2.963,1.25,0,0,0,0,0
2.964,1.375,0,0,0,0,0
2.965,1.5625,0,0,0,0,0
2.966,1.5625,0,0,0,0,0
2.967,1.5625,0,0,0,0,0
2.968,1.6875,0,0,0,0,0
2.969,1.875,0,0,0,0,0
2.97,1.75,0,0,0,0,0
2.971,1.5625,0,0,0,0,0
2.972,1.6875,0,0,0,0,0
2.973,1.875,0,0,0,0,0
2.974,2,0,0,0,0,0
2.975,2.1875,0,0,0,0,0
2.976,2.625,0,0,0,0,0
2.977,3.125,0,0,0,0,0
2.978,3.125,0,0,0,0,0
2.979,3.125,0,0,0,0,0
2.98,3,0,0,0,0,0
2.981,2.8125,0,0,0,0,0
2.982,2.8125,0,0,0,0,0
2.983,2.8125,0,0,0,0,0
2.984,2.8125,0,0,0,0,0
2.985,2.8125,0,0,0,0,0
2.986,2.5,0,0,0,0,0
2.987,2.1875,0,0,0,0,0
2.988,2.1875,0,0,0,0,0
2.989,2.1875,0,0,0,0,0
2.99,2.1875,0,0,0,0,0
2.991,2.1875,0,0,0,0,0
2.992,1.875,0,0,0,0,0
2.993,1.5625,0,0,0,0,0
2.994,1.6875,0,0,0,0,0
2.995,1.875,0,0,0,0,0
2.996,2,0,0,0,0,0
2.997,2.1875,0,0,0,0,0
2.998,2.1875,0,0,0,0,0
2.999,2.1875,0,0,0,0,0
3,1.75,0,0,0,0,0
3.001,1.25,0,0,0,0,0
3.002,1.5625,0,0,0,0,0
3.003,1.875,0,0,0,0,0
3.004,1.875,0,0,0,0,0
3.005,1.875,0,0,0,0,0
3.006,2.1875,0,0,0,0,0
3.007,2.5,0,0,0,0,0
3.008,2.625,0,0,0,0,0
3.009,2.8125,0,0,0,0,0
3.01,2.375,0,0,0,0,0
3.011,1.875,0,0,0,0,0
3.012,1.75,0,0,0,0,0
3.013,1.5625,0,0,0,0,0
3.014,1.5625,0,0,0,0,0
3.015,1.5625,0,0,0,0,0
3.016,1.5625,0,0,0,0,0
3.017,1.5625,0,0,0,0,0
3.018,1.875,0,0,0,0,0
3.019,2.1875,0,0,0,0,0
3.02,2.3125,0,0,0,0,0
3.021,2.5,0,0,0,0,0
3.022,2.375,0,0,0,0,0
3.023,2.1875,0,0,0,0,0
3.024,2.5,0,0,0,0,0
3.025,2.8125,0,0,0,0,0
3.026,3,0,0,0,0,0
3.027,3.125,0,0,0,0,0
3.028,2.375,0,0,0,0,0
3.029,1.875,0,0,0,0,0
3.03,2.1875,0,0,0,0,0
3.031,2.5,0,0,0,0,0
3.032,3.4375,0,0,0,0,0
3.033,3.75,0,0,0,0,0
3.034,3.75,0,0,0,0,0
3.035,3.4375,0,0,0,0,0
3.036,3.5625,0,0,0,0,0
3.037,4.0625,0,0,0,0,0
3.038,4.375,0,0,0,0,0
3.039,4.375,0,0,0,0,0
3.04,4.875,0,0,0,0,0
3.041,4.6875,0,0,0,0,0
3.042,4.6875,0,0,0,0,0
3.043,4.6875,0,0,0,0,0
3.044,5,0,0,0,0,0
3.045,5.625,0,0,0,0,0
3.046,5.625,0,0,0,0,0
3.047,5.3125,0,0,0,0,0
3.048,5,0,0,0,0,0
3.049,4.375,0,0,0,0,0
3.05,5,0,0,0,0,0
3.051,5.3125,0,0,0,0,0
3.052,5.625,0,0,0,0,0
3.053,5.625,0,0,0,0,0
3.054,5.8125,0,0,0,0,0
3.055,5.625,0,0,0,0,0
3.056,5.625,0,0,0,0,0
3.057,5.9375,0,0,0,0,0
3.058,5.8125,0,0,0,0,0
3.059,5.9375,0,0,0,0,0
3.06,5.1875,0,0,0,0,0
3.061,4.6875,0,0,0,0,0
3.062,5.4375,0,0,0,0,0
3.063,5.9375,0,0,0,0,0
3.064,6.375,0,0,0,0,0
3.065,6.875,0,0,0,0,0
3.066,6.4375,0,0,0,0,0
3.067,6.875,0,0,0,0,0
3.068,6.875,0,0,0,0,0
3.069,6.875,0,0,0,0,0
3.07,6.875,0,0,0,0,0
3.071,6.875,0,0,0,0,0
3.072,7.625,0,0,0,0,0
3.073,7.8125,0,0,0,0,0
3.074,7.8125,0,0,0,0,0
3.075,7.8125,0,0,0,0,0
3.076,8.25,0,0,0,0,0
3.077,8.4375,0,0,0,0,0
3.078,8,0,0,0,0,0
3.079,7.5,0,0,0,0,0
3.08,7.0625,0,0,0,0,0
3.081,6.5625,0,0,0,0,0
3.082,6.875,0,0,0,0,0
3.083,6.875,0,0,0,0,0
3.084,7,0,0,0,0,0
3.085,7.1875,0,0,0,0,0
3.086,7.8125,0,0,0,0,0
3.087,8.125,0,0,0,0,0
3.088,8,0,0,0,0,0
3.089,7.8125,0,0,0,1,0
3.09,8.4375,0,0,0,0,0
3.091,8.4375,0,0,0,0,0
3.092,7.8125,0,0,0,0,0
3.093,7.1875,0,0,0,0,0
3.094,7.1875,0,0,0,0,0
3.095,6.875,0,0,0,0,0
3.096,7.625,0,0,0,0,0
3.097,8.125,0,0,0,0,0
3.098,8.125,0,0,0,0,0
3.099,7.8125,0,0,0,0,0
3.1,7.375,0,0,0,0,0
3.101,7.5,0,0,0,0,0
3.102,7.8125,0,0,0,0,0
3.103,7.1875,0,0,0,0,0
3.104,6.6875,0,0,0,0,0
3.105,6.875,0,0,0,0,0
3.106,7,0,0,0,0,0
3.107,7.1875,0,0,0,0,0
3.108,6.5625,0,0,0,0,0
3.109,6.875,0,0,0,0,0
3.11,6.875,0,0,0,0,0
3.111,6.875,0,0,0,0,0
3.112,6.5625,0,0,0,0,0
3.113,6.25,0,0,0,0,0
3.114,5.625,0,0,0,0,0
3.115,5.625,0,0,0,0,0
3.116,6.0625,0,0,0,0,0
3.117,5.625,0,0,0,0,0
3.118,5.75,0,0,0,0,0
3.119,5.625,0,0,0,0,0
3.12,5.9375,0,0,0,0,0
3.121,6.25,0,0,0,0,0
3.122,6.25,0,0,0,0,0
3.123,6.25,0,0,0,0,0
3.124,5.9375,0,0,0,0,0
3.125,5.3125,0,0,0,0,0
3.126,5.3125,0,0,0,0,0
3.127,5.3125,0,0,0,0,0
3.128,5.4375,0,0,0,0,0
3.129,5.625,0,0,0,0,0
3.13,5.3125,0,0,0,0,0
3.131,5,0,0,0,0,0
3.132,5.4375,0,0,0,0,0
3.133,5.625,0,0,0,0,0
3.134,5.625,0,0,0,0,0
3.135,5.3125,0,0,0,0,0
3.136,5.3125,0,0,0,0,0
3.137,5,0,0,0,0,0
3.138,4.8125,0,0,0,0,0
3.139,5,0,0,0,0,0
3.14,5.625,0,0,0,0,0
3.141,5.9375,0,0,0,0,0
3.142,5.625,0,0,0,0,0
3.143,5.625,0,0,0,0,0
3.144,5.8125,0,0,0,0,1
3.145,4.375,0,0,0,0,0
3.146,3.9375,0,0,0,0,0
3.147,4.375,0,0,0,0,0
3.148,4.0625,0,0,0,0,0
3.149,4.375,0,0,0,0,0
3.15,4.375,0,0,0,0,0
3.151,4.375,0,0,0,0,0
3.152,4.6875,0,0,0,0,0
3.153,5.3125,0,0,0,0,0
3.154,5.3125,0,0,0,0,0
3.155,5.625,0,0,0,0,0
3.156,5.1875,0,0,0,0,0
3.157,5.3125,0,0,0,0,0
3.158,5.4375,0,0,0,0,0
3.159,5,0,0,0,0,0
3.16,4.6875,0,0,0,0,0
3.161,4.6875,0,0,0,0,0
3.162,4.375,0,0,0,0,0
3.163,4.375,0,0,0,0,0
3.164,4.8125,0,0,0,0,0
3.165,4.6875,0,0,0,0,0
3.166,5,0,0,0,0,0
3.167,5,0,0,0,0,0
3.168,4.25,0,0,0,0,0
3.169,3.75,0,0,0,0,0
3.17,4.6875,0,0,0,0,0
3.171,4.375,0,0,0,0,0
3.172,5,0,0,0,0,0
3.173,5.9375,0,0,0,0,0
3.174,5.75,0,0,0,0,0
3.175,5.625,0,0,0,0,0
3.176,5.5,0,0,0,0,0
3.177,5.3125,0,0,0,0,0
3.178,5.1875,0,0,0,0,0
3.179,5,0,0,0,0,0
3.18,5,0,0,0,0,0
3.181,5,0,0,0,0,0
3.182,4.8125,0,0,0,0,0
3.183,5,0,0,0,0,0
3.184,4.5,0,0,0,0,0
3.185,5,0,0,0,0,0
3.186,5.1875,0,0,0,0,0
3.187,5.3125,0,0,0,0,0
3.188,5.1875,0,0,0,0,0
3.189,5.3125,0,0,0,0,0
3.19,5.3125,0,0,0,0,0
3.191,5.3125,0,0,0,0,0
3.192,5.625,0,0,0,0,0
3.193,5.9375,0,0,0,0,0
3.194,5.625,0,0,0,0,0
3.195,5.3125,0,0,0,0,0
3.196,5.4375,0,0,0,0,0
3.197,5.3125,0,0,0,0,0
3.198,5.75,0,0,0,0,0
3.199,5.625,0,0,0,0,0
3.2,5.5,0,0,0,0,0
3.201,5,0,0,0,0,0
3.202,4.875,0,0,0,0,0
3.203,5,0,0,0,0,0
3.204,4.875,0,0,0,0,0
3.205,4.6875,0,0,0,0,0
3.206,5,0,0,0,0,0
3.207,5.3125,0,0,0,0,0
3.208,5.3125,0,0,0,0,0
3.209,5.625,0,0,0,0,0
3.21,5.4375,0,0,0,0,0
3.211,5,0,0,0,0,0
3.212,4.375,0,0,0,0,0
3.213,4.375,0,0,0,0,0
3.214,4.5625,0,0,0,0,0
3.215,4.0625,0,0,0,0,0
3.216,4.5,0,0,0,0,0
3.217,4.375,0,0,0,0,0
3.218,4.1875,0,0,0,0,0
3.219,4.375,0,0,0,0,0
3.22,4.6875,0,0,0,0,0
3.221,5,0,0,0,0,0
3.222,4.8125,0,0,0,0,0
3.223,5,0,0,0,0,0
3.224,5.125,0,0,0,0,0
3.225,5.625,0,0,0,0,0
3.226,5.625,0,0,0,0,0
3.227,5.625,0,0,0,0,0
3.228,6.25,0,0,0,0,0
3.229,6.25,0,0,0,0,0
3.23,5.9375,0,0,0,0,0
3.231,5.9375,0,0,0,0,0
3.232,5.9375,0,0,0,0,0
3.233,6.25,0,0,0,0,0
3.234,5.3125,0,0,0,0,0
3.235,5.3125,0,0,0,0,0
3.236,5.4375,0,0,0,0,0
3.237,5.625,0,0,0,0,0
3.238,5.1875,0,0,0,0,0
3.239,5.3125,0,0,0,0,0
3.24,5.75,0,0,0,0,0
3.241,5.9375,0,0,0,0,0
3.242,5.9375,0,0,0,0,0
3.243,5.9375,0,0,0,0,0
3.244,5.9375,0,0,0,0,0
3.245,5.9375,0,0,0,0,0
3.246,5.5,0,0,0,0,0
3.247,5,0,0,0,0,0
3.248,4.6875,0,0,0,0,0
3.249,4.375,0,0,0,0,0
3.25,5.4375,0,0,0,0,0
3.251,5.625,0,0,0,0,0
3.252,5.5,0,0,0,0,0
3.253,5.3125,0,0,0,0,0
3.254,5.75,0,0,0,0,0
3.255,5.9375,0,0,0,0,0
3.256,6.0625,0,0,0,0,0
3.257,5.9375,0,0,0,0,0
3.258,5.5,0,0,0,0,0
3.259,5.625,0,0,0,0,0
3.26,5.3125,0,0,0,0,0
3.261,5.3125,0,0,0,0,0
3.262,5.3125,0,0,0,0,0
3.263,5.625,0,0,0,0,0
3.264,5.625,0,0,0,0,0
3.265,5.3125,0,0,0,0,0
3.266,5.4375,0,0,0,0,0
3.267,5.3125,0,0,0,0,0
3.268,5,0,0,0,0,0
3.269,4.6875,0,0,0,0,0
3.27,4.6875,0,0,0,0,0
3.271,4.6875,0,0,0,0,0
3.272,5.125,0,0,0,0,0
3.273,5.3125,0,0,0,0,0
3.274,5,0,0,0,0,0
3.275,4.6875,0,0,0,0,0
3.276,4.375,0,0,0,0,0
3.277,4.6875,0,0,0,0,0
3.278,4.25,0,0,0,0,0
3.279,4.375,0,0,0,0,0
3.28,4.6875,0,0,0,0,0
3.281,4.6875,0,0,0,0,0
3.282,5,0,0,0,0,0
3.283,4.6875,0,0,0,0,0
3.284,4.875,0,0,0,0,0
3.285,5,0,0,0,0,0
3.286,4.875,0,0,0,0,0
3.287,4.6875,0,0,0,0,0
3.288,4.8125,0,0,0,0,0
3.289,4.6875,0,0,0,0,0
3.29,4.875,0,0,0,0,0
3.291,4.0625,0,0,0,0,0
3.292,3.875,0,0,0,0,0
3.293,4.375,0,0,0,0,0
3.294,4.25,0,0,0,0,0
3.295,4.0625,0,0,0,0,0
3.296,4.375,0,0,0,0,0
3.297,5,0,0,0,0,0
3.298,4.8125,0,0,0,0,0
3.299,5,0,0,0,0,0
3.3,4.375,0,0,0,0,0
3.301,3.75,0,0,0,0,0
3.302,4.6875,0,0,0,0,0
3.303,5,0,0,0,0,0
3.304,5.4375,0,0,0,0,0
3.305,5.9375,0,0,0,0,0
3.306,5.5,0,0,0,0,0
3.307,5.625,0,0,0,0,0
3.308,5.75,0,0,0,0,0
3.309,5.9375,0,0,0,0,0
3.31,6.125,0,0,0,0,0
3.311,5.625,0,0,0,0,0
3.312,5.75,0,0,0,0,0
3.313,5.9375,0,0,0,0,0
3.314,7.3125,0,0,0,0,0
3.315,8.125,0,0,0,0,0
3.316,8.75,0,0,0,0,0
3.317,9.375,0,0,0,0,0
3.318,9.25,0,0,0,0,0
3.319,9.0625,0,0,0,0,0
3.32,9.375,0,0,0,0,0
3.321,9.375,0,0,0,0,0
3.322,9.1875,0,0,0,0,0
3.323,9.375,0,0,0,0,0
3.324,8.75,0,0,0,0,0
3.325,8.4375,0,0,0,0,0
3.326,8.5625,0,0,0,0,0
3.327,8.75,0,0,0,0,0
3.328,8.9375,0,0,0,0,0
3.329,8.75,0,0,0,0,0
3.33,9.5,0,0,0,0,0
3.331,9.0625,0,0,0,0,0
3.332,9.1875,0,0,0,0,0
3.333,9.0625,0,0,0,0,0
3.334,8.625,0,0,0,0,0
3.335,8.75,0,0,0,0,0
3.336,8.625,0,0,0,0,0
3.337,8.75,0,0,0,0,0
3.338,8.875,0,0,0,0,0
3.339,9.0625,0,0,0,0,0
3.34,8.9375,0,0,0,0,0
3.341,9.0625,0,0,0,0,0
3.342,9.0625,0,0,0,0,0
3.343,9.0625,0,0,0,0,0
3.344,8.9375,0,0,0,0,0
3.345,8.75,0,0,0,0,0
3.346,8.75,0,0,0,0,0
3.347,8.75,0,0,0,0,0
3.348,8.4375,0,0,0,0,0
3.349,8.4375,0,0,0,0,0
3.35,8.625,0,0,0,0,0
3.351,8.4375,0,0,0,0,0
3.352,9.0625,0,0,0,0,0
3.353,8.75,0,0,0,0,0
3.354,8.75,0,0,0,0,0
3.355,8.75,0,0,0,0,0
3.356,8.5625,0,0,0,0,0
3.357,8.75,0,0,0,0,0
3.358,8.4375,0,0,0,0,0
3.359,8.4375,0,0,0,0,0
3.36,8.125,0,0,0,0,0
3.361,8.4375,0,0,0,0,0
3.362,8,0,0,0,0,0
3.363,7.8125,0,0,0,0,0
3.364,8.4375,0,0,0,0,0
3.365,8.125,0,0,0,0,0
3.366,8.125,0,0,0,0,0
3.367,7.8125,0,0,0,0,0
3.368,7.625,0,0,0,0,0
3.369,7.8125,0,0,0,0,0
3.37,7.5,0,0,0,0,0
3.371,7.1875,0,0,0,0,0
3.372,7.1875,0,0,0,0,0
3.373,7.1875,0,0,0,0,0
3.374,7.3125,0,0,0,0,0
3.375,7.1875,0,0,0,0,0
3.376,6.75,0,0,0,0,0
3.377,6.5625,0,0,0,0,0
3.378,5.9375,0,0,0,0,0
3.379,5.9375,0,0,0,0,0
3.38,5.8125,0,0,0,0,0
3.381,5.3125,0,0,0,0,0
3.382,5,0,0,0,0,0
3.383,5.3125,0,0,0,0,0
3.384,5.3125,0,0,0,0,0
3.385,4.6875,0,0,0,0,0
3.386,4.0625,0,0,0,0,0
3.387,3.125,0,0,0,0,0
3.388,4.375,0,0,0,0,0
3.389,5,0,0,0,0,0
3.39,4.5625,0,0,0,0,0
3.391,5,0,0,0,0,0
3.392,4.8125,0,0,0,0,0
3.393,4.6875,0,0,0,0,0
3.394,4.25,0,0,0,0,0
3.395,3.75,0,0,0,0,0
3.396,3.625,0,0,0,0,0
3.397,3.4375,0,0,0,0,0
3.398,3.4375,0,0,0,0,0
3.399,3.75,0,0,0,0,0
3.4,4.6875,0,0,0,0,0
3.401,5.3125,0,0,0,0,0
3.402,4.6875,0,0,0,0,0
3.403,4.0625,0,0,0,0,0
3.404,3.75,0,0,0,0,0
3.405,4.0625,0,0,0,0,0
3.406,3.9375,0,0,0,0,0
3.407,3.75,0,0,0,0,0
3.408,3.875,0,0,0,0,0
3.409,3.75,0,0,0,0,0
3.41,4.0625,0,0,0,0,0
3.411,3.75,0,0,0,0,0
3.412,3.75,0,0,0,0,0
3.413,3.75,0,0,0,0,0
3.414,4.5,0,0,0,0,0
3.415,5,0,0,0,0,0
3.416,4.5625,0,0,0,0,0
3.417,4.6875,0,0,0,0,0
3.418,4.0625,0,0,0,0,0
3.419,4.375,0,0,0,0,0
3.42,4.0625,0,0,0,0,0
3.421,4.0625,0,0,0,0,0
3.422,4.0625,0,0,0,0,0
3.423,4.0625,0,0,0,0,0
3.424,4.0625,0,0,0,0,0
3.425,4.0625,0,0,0,0,0
3.426,3.75,0,0,0,0,0
3.427,3.75,0,0,0,0,0
3.428,3.3125,0,0,0,0,0
3.429,2.8125,0,0,0,0,0
3.43,3.125,0,0,0,0,0
3.431,3.125,0,0,0,0,0
3.432,2.6875,0,0,0,0,0
3.433,2.8125,0,0,0,0,0
3.434,2.6875,0,0,0,0,0
3.435,2.8125,0,0,0,0,0
3.436,2.9375,0,0,0,0,0
3.437,3.4375,0,0,0,0,0
3.438,3.25,0,0,0,0,0
3.439,3.4375,0,0,0,0,0
3.44,3.125,0,0,0,0,0
3.441,3.4375,0,0,0,0,0
3.442,3.75,0,0,0,0,0
3.443,3.75,0,0,0,0,0
3.444,3.3125,0,0,0,0,0
3.445,2.8125,0,0,0,0,0
3.446,3,0,0,0,0,0
3.447,2.1875,0,0,0,0,0
3.448,2.8125,0,0,0,0,0
3.449,2.5,0,0,0,0,0
3.45,2.9375,0,0,0,0,0
3.451,3.125,0,0,0,0,0
3.452,3,0,0,0,0,0
3.453,2.1875,0,0,0,0,0
3.454,2.5,0,0,0,0,0
3.455,2.8125,0,0,0,0,0
3.456,3.25,0,0,0,0,0
3.457,4.0625,0,0,0,0,0
3.458,3.875,0,0,0,0,0
3.459,4.0625,0,0,0,0,0
3.46,3.75,0,0,0,0,0
3.461,3.4375,0,0,0,0,0
3.462,3.25,0,0,0,0,0
3.463,3.125,0,0,0,0,0
3.464,3.75,0,0,0,0,0
3.465,4.6875,0,0,0,0,0
3.466,5,0,0,0,0,0
3.467,4.6875,0,0,0,0,0
3.468,5.3125,0,0,0,0,0
3.469,5.3125,0,0,0,0,0
3.47,5.3125,0,0,0,0,0
3.471,5,0,0,0,0,0
3.472,4.875,0,0,0,0,0
3.473,4.0625,0,0,0,0,0
3.474,4.25,0,0,0,0,0
3.475,4.0625,0,0,0,0,0
3.476,3.75,0,0,0,0,0
3.477,4.0625,0,0,0,0,0
3.478,4.375,0,0,0,0,0
3.479,4.375,0,0,0,0,0
3.48,3.3125,0,0,0,0,0
3.481,3.125,0,0,0,0,0
3.482,3.4375,0,0,0,0,0
3.483,3.4375,1,0,0,0,0
3.484,3,0,0,0,0,0
3.485,2.5,0,0,0,0,0
3.486,2.1875,0,0,0,0,0
3.487,1.5625,0,0,0,0,0
3.488,2,0,0,0,0,0
3.489,2.5,0,0,0,0,0
3.49,2.8125,0,0,0,0,0
3.491,2.8125,0,0,0,0,0
3.492,3.125,0,0,0,0,0
3.493,3.4375,0,0,0,0,0
3.494,3.875,0,0,0,0,0
3.495,4.6875,0,0,0,0,0
3.496,5.125,0,0,0,0,0
3.497,5.3125,0,0,0,0,0
3.498,6.25,0,0,0,0,0
3.499,6.875,0,0,0,0,0
3.5,5.8125,0,0,0,0,0
3.501,5.3125,0,0,0,0,0
3.502,5,0,0,0,0,0
3.503,5.3125,0,0,0,0,0
3.504,5,0,0,0,0,0
3.505,5,0,0,0,0,0
3.506,5.9375,0,0,0,0,0
3.507,6.875,0,0,0,0,0
3.508,7.625,0,0,0,0,0
3.509,8.4375,0,0,0,0,0
3.51,8.75,0,0,0,0,0
3.511,9.6875,0,0,0,0,0
3.512,10.813,0,0,0,0,0
3.513,12.188,0,0,0,0,0
3.514,13.875,0,0,0,0,0
3.515,15.313,0,0,0,0,0
3.516,16.563,0,0,0,0,0
3.517,17.5,0,0,0,0,0
3.518,16.875,0,0,0,0,0
3.519,17.188,0,0,0,0,0
3.52,18.125,0,0,0,0,0
3.521,18.438,0,0,0,0,0
3.522,19.375,0,0,0,0,0
3.523,20.313,0,0,0,0,0
3.524,21.063,0,0,0,0,0
3.525,20.938,0,0,0,0,0
3.526,21.25,0,1,0,0,0
3.527,21.25,0,0,0,0,0
3.528,20.813,0,0,0,0,0
3.529,20.938,0,0,0,0,0
3.53,21.063,0,0,0,0,0
3.531,20.938,0,0,0,0,0
3.532,21.063,0,0,0,0,0
3.533,20.938,0,0,0,0,0
3.534,18.313,0,0,0,0,0
3.535,15.625,0,0,0,0,0
3.536,13.75,0,0,0,0,0
3.537,12.813,0,0,0,0,0
3.538,11.25,0,0,0,0,0
3.539,10,0,0,0,0,0
3.54,9.5,0,0,0,0,0
3.541,9.375,0,0,0,0,0
3.542,9.375,0,0,0,0,0
3.543,9.0625,0,0,0,0,0
3.544,10.188,0,0,0,0,0
3.545,11.875,0,0,0,0,0
3.546,14.688,0,0,0,0,0
3.547,16.563,0,0,0,0,0
3.548,16.875,0,0,0,0,0
3.549,17.188,0,0,0,0,0
3.55,16.688,0,0,0,0,0
3.551,17.5,0,0,0,0,0
3.552,18.125,0,0,0,0,0
3.553,17.813,0,0,0,0,0
3.554,17.813,0,0,0,0,0
3.555,17.5,0,0,0,0,0
3.556,18.125,0,0,0,0,0
3.557,17.813,0,0,0,0,0
3.558,16.125,0,0,0,0,0
3.559,14.688,0,0,0,0,0
3.56,14.188,0,0,0,0,0
3.561,13.438,0,0,0,0,0
3.562,12.688,0,0,0,0,0
3.563,11.563,0,0,0,0,0
3.564,10.188,0,0,0,0,0
3.565,9.0625,0,0,0,0,0
3.566,8,0,0,0,0,0
3.567,6.5625,0,0,0,0,0
3.568,5.9375,0,0,0,0,0
3.569,6.25,0,0,0,0,0
3.57,6.4375,0,0,0,0,0
3.571,5.9375,0,0,0,0,0
3.572,5.5,0,0,0,0,0
3.573,5,0,0,0,0,0
3.574,5,0,0,0,0,0
3.575,4.6875,0,0,0,0,0
3.576,4.8125,0,0,0,0,0
3.577,5.3125,0,0,0,0,0
3.578,5.9375,0,0,0,0,0
3.579,5.625,0,0,0,0,0
3.58,6.0625,0,0,0,0,0
3.581,6.25,0,0,0,0,0
3.582,5.5,0,0,0,0,0
3.583,4.6875,0,0,0,0,0
3.584,5,0,0,0,0,0
3.585,5,0,0,0,0,0
3.586,4.5,0,0,0,0,0
3.587,4.0625,0,0,0,0,0
3.588,3.4375,0,0,0,0,0
3.589,2.8125,0,0,0,0,0
3.59,2.1875,0,0,0,0,0
3.591,2.1875,0,0,0,0,0
3.592,2.625,0,0,0,0,0
3.593,2.5,0,0,0,0,0
3.594,2.1875,0,0,0,0,0
3.595,1.5625,0,0,0,0,0
3.596,1.25,0,0,0,0,0
3.597,1.25,0,0,0,0,0
3.598,1.5625,0,0,0,0,0
3.599,1.25,0,0,0,0,0
3.6,0.625,0,0,0,0,0
3.601,-0.3125,0,0,0,0,0
3.602,0.4375,0,0,0,0,0
3.603,0.9375,0,0,0,0,0
3.604,0.625,0,0,0,0,0
3.605,0,0,0,0,0,0
3.606,-0.125,0,0,0,0,0
3.607,0.3125,0,0,0,0,0
3.608,0.75,0,0,0,0,0
3.609,0.625,0,0,0,0,0
3.61,-0.125,0,0,0,0,0
3.611,-0.3125,0,0,0,0,0
3.612,-0.4375,0,0,0,0,0
3.613,-0.3125,0,0,0,0,0
3.614,0.4375,0,0,0,0,0
3.615,1.25,0,0,0,0,0
3.616,1.4375,0,0,0,0,0
3.617,1.5625,0,0,0,0,0
3.618,1.4375,0,0,0,0,0
3.619,1.875,0,0,0,0,0
3.62,2.3125,0,0,0,0,0
3.621,2.1875,0,0,0,0,0
3.622,2.625,0,0,0,0,0
3.623,2.5,0,0,0,0,0
3.624,2.8125,0,0,0,0,0
3.625,2.8125,0,0,0,0,0
3.626,2.9375,0,0,0,0,0
3.627,3.125,0,0,0,0,0
3.628,2.5,0,0,0,0,0
3.629,2.1875,0,0,0,0,0
3.63,2.1875,0,0,0,0,0
3.631,2.5,0,0,0,0,0
3.632,2.625,0,0,0,0,0
3.633,2.8125,0,0,0,0,0
3.634,3.125,0,0,0,0,0
3.635,2.5,0,0,0,0,0
3.636,2.9375,0,0,0,0,0
3.637,2.8125,0,0,0,0,0
3.638,3.125,0,0,0,0,0
3.639,3.125,0,0,0,0,0
3.64,3.125,0,0,0,0,0
3.641,3.125,0,0,0,0,0
3.642,4.0625,0,0,0,0,0
3.643,4.375,0,0,0,0,0
3.644,4.5,0,0,0,0,0
3.645,4.6875,0,0,0,0,0
3.646,4.6875,0,0,0,0,0
3.647,4.6875,0,0,0,0,0
3.648,4.6875,0,0,0,0,0
3.649,5.3125,0,0,0,0,0
3.65,5.4375,0,0,0,0,0
3.651,5.3125,0,0,0,0,0
3.652,4.875,0,0,0,0,0
3.653,4.6875,0,0,0,0,0
3.654,4.375,0,0,0,0,0
3.655,3.75,0,0,0,0,0
3.656,3.75,0,0,0,0,0
3.657,4.375,0,0,0,0,0
3.658,4.0625,0,0,0,0,0
3.659,4.0625,0,0,0,0,0
3.66,4.375,0,0,0,0,0
3.661,4.375,0,0,1,0,0
3.662,3.9375,0,0,0,0,0
3.663,4.0625,0,0,0,0,0
3.664,4.1875,0,0,0,0,0
3.665,4.6875,0,0,0,0,0
3.666,4.5,0,0,0,0,0
3.667,4.375,0,0,0,0,0
3.668,4.5,0,0,0,0,0
3.669,4.6875,0,0,0,0,0
3.67,4.375,0,0,0,0,0
3.671,4.6875,0,0,0,0,0
3.672,4.6875,0,0,0,0,0
3.673,5,0,0,0,0,0
3.674,5.125,0,0,0,0,0
3.675,4.6875,0,0,0,0,0
3.676,5.3125,0,0,0,0,0
3.677,5,0,0,0,0,0
3.678,5.1875,0,0,0,0,0
3.679,4.6875,0,0,0,0,0
3.68,4.875,0,0,0,0,0
3.681,4.6875,0,0,0,0,0
3.682,4.5625,0,0,0,0,0
3.683,4.6875,0,0,0,0,0
3.684,4.375,0,0,0,0,0
3.685,4.0625,0,0,0,0,0
3.686,3.9375,0,0,0,0,0
3.687,4.0625,0,0,0,0,0
3.688,3.9375,0,0,0,0,0
3.689,4.375,0,0,0,0,0
3.69,4.375,0,0,0,0,0
3.691,4.375,0,0,0,0,0
3.692,4.8125,0,0,0,0,0
3.693,5,0,0,0,0,0
3.694,5,0,0,0,0,0
3.695,5,0,0,0,0,0
3.696,4.6875,0,0,0,0,0
3.697,4.375,0,0,0,0,0
3.698,3.625,0,0,0,0,0
3.699,3.4375,0,0,0,0,0
3.7,3.875,0,0,0,0,0
3.701,3.75,0,0,0,0,0
3.702,3.75,0,0,0,0,0
3.703,3.75,0,0,0,0,0
3.704,3.9375,0,0,0,0,0
3.705,4.375,0,0,0,0,0
3.706,4.375,0,0,0,0,0
3.707,5,0,0,0,0,0
3.708,4.6875,0,0,0,0,0
3.709,4.375,0,0,0,0,0
3.71,4.5,0,0,0,0,0
3.711,4.375,0,0,0,0,0
3.712,4.375,0,0,0,0,0
3.713,4.375,0,0,0,0,0
3.714,4.25,0,0,0,0,0
3.715,4.0625,0,0,0,0,0
3.716,4.375,0,0,0,0,0
3.717,4.6875,0,0,0,0,0
3.718,4.6875,0,0,0,0,0
3.719,5,0,0,0,0,0
3.72,4.5,0,0,0,0,0
3.721,4.375,0,0,0,0,0
3.722,4.0625,0,0,0,0,0
3.723,3.75,0,0,0,0,0
3.724,3.875,0,0,0,0,0
3.725,3.75,0,0,0,0,0
3.726,4.375,0,0,0,0,0
3.727,5,0,0,0,0,0
3.728,4.8125,0,0,0,0,0
3.729,5,0,0,0,0,0
3.73,4.375,0,0,0,0,0
3.731,3.4375,0,0,0,0,0
3.732,3.125,0,0,0,0,0
3.733,2.8125,0,0,0,0,0
3.734,3.4375,0,0,0,0,0
3.735,3.75,0,0,0,0,0
3.736,3.3125,0,0,0,0,0
3.737,3.125,0,0,0,0,0
3.738,3.75,0,0,0,0,0
3.739,3.4375,0,0,0,0,0
3.74,3.125,0,0,0,0,0
3.741,3.4375,0,0,0,0,0
3.742,3.3125,0,0,0,0,0
3.743,3.125,0,0,0,0,0
3.744,2.9375,0,0,0,0,0
3.745,3.4375,0,0,0,0,0
3.746,4.0625,0,0,0,0,0
3.747,4.6875,0,0,0,0,0
3.748,4.25,0,0,0,0,0
3.749,4.375,0,0,0,0,0
3.75,3.9375,0,0,0,0,0
3.751,4.0625,0,0,0,0,0
3.752,3.125,0,0,0,0,0
3.753,2.8125,0,0,0,0,0
3.754,2.8125,0,0,0,0,0
3.755,3.125,0,0,0,0,0
3.756,2.625,0,0,0,0,0
3.757,3.125,0,0,0,0,0
3.758,3.25,0,0,0,0,0
3.759,3.125,0,0,0,0,0
3.76,2.5,0,0,0,0,0
3.761,2.1875,0,0,0,0,0
3.762,2.625,0,0,0,0,0
3.763,3.125,0,0,0,0,0
3.764,3.25,0,0,0,0,0
3.765,4.0625,0,0,0,0,0
3.766,4.0625,0,0,0,0,0
3.767,4.0625,0,0,0,0,0
3.768,3.625,0,0,0,0,0
3.769,3.75,0,0,0,0,0
3.77,3.75,0,0,0,0,0
3.771,4.0625,0,0,0,0,0
3.772,3.4375,0,0,0,0,0
3.773,3.125,0,0,0,0,0
3.774,2.8125,0,0,0,0,0
3.775,2.1875,0,0,0,0,0
3.776,2.625,0,0,0,0,0
3.777,2.5,0,0,0,0,0
3.778,2.625,0,0,0,0,0
3.779,3.125,0,0,0,0,0
3.78,3.625,0,0,0,0,0
3.781,3.125,0,0,0,0,0
3.782,3.125,0,0,0,0,0
3.783,2.5,0,0,0,0,0
3.784,2.1875,0,0,0,0,0
3.785,2.1875,0,0,0,0,0
3.786,2.8125,0,0,0,0,0
3.787,2.1875,0,0,0,0,0
3.788,2.0625,0,0,0,0,0
3.789,1.25,0,0,0,0,0
3.79,1.0625,0,0,0,0,0
3.791,1.875,0,0,0,0,0
3.792,2.625,0,0,0,0,0
3.793,3.125,0,0,0,0,0
3.794,3,0,0,0,0,0
3.795,3.125,0,0,0,0,0
3.796,3.4375,0,0,0,0,0
3.797,3.75,0,0,0,0,0
3.798,3.625,0,0,0,0,0
3.799,3.4375,0,0,0,0,0
3.8,2.8125,0,0,0,0,0
3.801,2.5,0,0,0,0,0
3.802,2.8125,0,0,0,0,0
3.803,2.8125,0,0,0,0,0
3.804,3,0,0,0,0,0
3.805,2.8125,0,0,0,0,0
3.806,2.9375,0,0,0,0,0
3.807,2.8125,0,0,0,0,0
3.808,2.1875,0,0,0,0,0
3.809,2.5,0,0,0,0,0
3.81,2.9375,0,0,0,0,0
3.811,3.125,0,0,0,0,0
3.812,3,0,0,0,0,0
3.813,2.5,0,0,0,0,0
3.814,2.625,0,0,0,0,0
3.815,3.125,0,0,0,0,0
3.816,3.125,0,0,0,0,0
3.817,3.125,0,0,0,0,0
3.818,3.4375,0,0,0,0,0
3.819,3.125,0,0,0,0,0
3.82,3.25,0,0,0,0,0
3.821,4.0625,0,0,0,0,0
3.822,4.1875,0,0,0,0,0
3.823,4.375,0,0,0,0,0
3.824,3.875,0,0,0,0,0
3.825,4.375,0,0,0,0,0
3.826,3.9375,0,0,0,0,0
3.827,4.0625,0,0,0,0,0
3.828,4.375,0,0,0,0,0
3.829,4.0625,0,0,0,0,0
3.83,4.5,0,0,0,0,0
3.831,5,0,0,0,0,0
3.832,5.125,0,0,0,0,0
3.833,5.625,0,0,0,0,0
3.834,5.3125,0,0,0,0,0
3.835,5.3125,0,0,0,0,0
3.836,5.3125,0,0,0,0,0
3.837,5,0,0,0,0,0
3.838,5.625,0,0,0,0,0
3.839,5.3125,0,0,0,0,0
3.84,5.625,0,0,0,0,0
3.841,6.25,0,0,0,0,0
3.842,6.25,0,0,0,0,0
3.843,5.9375,0,0,0,0,0
3.844,6.25,0,0,0,0,0
3.845,6.25,0,0,0,0,0
3.846,5.9375,0,0,0,0,0
3.847,5.625,0,0,0,0,0
3.848,5.5,0,0,0,0,0
3.849,5.625,0,0,0,0,0
3.85,5.3125,0,0,0,0,0
3.851,5.625,0,0,0,0,0
3.852,5.9375,0,0,0,0,0
3.853,6.5625,0,0,0,0,0
3.854,6.875,0,0,0,0,0
3.855,6.5625,0,0,0,0,0
3.856,7,0,0,0,0,0
3.857,6.875,0,0,0,0,0
3.858,7.1875,0,0,0,0,0
3.859,6.875,0,0,0,0,0
3.86,6.75,0,0,0,1,0
3.861,6.875,0,0,0,0,0
3.862,7.5,0,0,0,0,0
3.863,7.8125,0,0,0,0,0
3.864,7.6875,0,0,0,0,0
3.865,7.8125,0,0,0,0,0
3.866,7.6875,0,0,0,0,0
3.867,7.1875,0,0,0,0,0
3.868,7.8125,0,0,0,0,0
3.869,8.125,0,0,0,0,0
3.87,7.375,0,0,0,0,0
3.871,7.5,0,0,0,0,0
3.872,7.5,0,0,0,0,0
3.873,7.5,0,0,0,0,0
3.874,7.0625,0,0,0,0,0
3.875,6.875,0,0,0,0,0
3.876,6.875,0,0,0,0,0
3.877,6.5625,0,0,0,0,0
3.878,7.1875,0,0,0,0,0
3.879,6.5625,0,0,0,0,0
3.88,6.875,0,0,0,0,0
3.881,6.875,0,0,0,0,0
3.882,6.4375,0,0,0,0,0
3.883,6.25,0,0,0,0,0
3.884,6.375,0,0,0,0,0
3.885,6.25,0,0,0,0,0
3.886,6.25,0,0,0,0,0
3.887,5.9375,0,0,0,0,0
3.888,5.9375,0,0,0,0,0
3.889,6.5625,0,0,0,0,0
3.89,6.875,0,0,0,0,0
3.891,7.1875,0,0,0,0,0
3.892,6.875,0,0,0,0,0
3.893,6.875,0,0,0,0,0
3.894,6.25,0,0,0,0,0
3.895,5.625,0,0,0,0,0
3.896,6.25,0,0,0,0,0
3.897,6.5625,0,0,0,0,0
3.898,6.375,0,0,0,0,0
3.899,6.25,0,0,0,0,0
3.9,7,0,0,0,0,0
3.901,7.5,0,0,0,0,0
3.902,7.3125,0,0,0,0,0
3.903,7.5,0,0,0,0,0
3.904,6.5625,0,0,0,0,0
3.905,5.9375,0,0,0,0,0
3.906,4.875,0,0,0,0,0
3.907,4.6875,0,0,0,0,0
3.908,4.6875,0,0,0,0,0
3.909,5,0,0,0,0,0
3.91,5.4375,0,0,0,0,0
3.911,5.9375,0,0,0,0,0
3.912,6.0625,0,0,0,0,0
3.913,5.9375,0,0,0,0,0
3.914,5.8125,0,0,0,0,0
3.915,5.3125,0,0,0,0,0
3.916,5.125,0,0,0,0,0
3.917,5,0,0,0,0,0
3.918,4.875,0,0,0,0,0
3.919,4.6875,0,0,0,0,0
3.92,4.6875,0,0,0,0,0
3.921,4.6875,0,0,0,0,0
3.922,5,0,0,0,0,0
3.923,5.625,0,0,0,0,0
3.924,5,0,0,0,0,0
3.925,4.6875,0,0,0,0,0
3.926,4.5625,0,0,0,0,0
3.927,4.375,0,0,0,0,0
3.928,4.375,0,0,0,0,0
3.929,4.6875,0,0,0,0,0
3.93,4.25,0,0,0,0,1
3.931,4.375,0,0,0,0,0
3.932,4.375,0,0,0,0,0
3.933,4.375,0,0,0,0,0
3.934,4.5,0,0,0,0,0
3.935,5,0,0,0,0,0
3.936,4.6875,0,0,0,0,0
3.937,4.375,0,0,0,0,0
3.938,4.375,0,0,0,0,0
3.939,4.0625,0,0,0,0,0
3.94,3.75,0,0,0,0,0
3.941,3.75,0,0,0,0,0
3.942,4.1875,0,0,0,0,0
3.943,4.6875,0,0,0,0,0
3.944,4.8125,0,0,0,0,0
3.945,4.6875,0,0,0,0,0
3.946,4.8125,0,0,0,0,0
3.947,5.3125,0,0,0,0,0
3.948,5,0,0,0,0,0
3.949,5.3125,0,0,0,0,0
3.95,4.5625,0,0,0,0,0
3.951,5,0,0,0,0,0
3.952,4.6875,0,0,0,0,0
3.953,4.0625,0,0,0,0,0
3.954,4.1875,0,0,0,0,0
3.955,3.75,0,0,0,0,0
3.956,3.75,0,0,0,0,0
3.957,4.0625,0,0,0,0,0
3.958,4.375,0,0,0,0,0
3.959,5,0,0,0,0,0
3.96,4.25,0,0,0,0,0
3.961,3.75,0,0,0,0,0
3.962,3.75,0,0,0,0,0
3.963,4.0625,0,0,0,0,0
3.964,3.4375,0,0,0,0,0
3.965,4.0625,0,0,0,0,0
3.966,4.0625,0,0,0,0,0
3.967,4.375,0,0,0,0,0
3.968,4.6875,0,0,0,0,0
3.969,4.6875,0,0,0,0,0
3.97,4.6875,0,0,0,0,0
3.971,4.6875,0,0,0,0,0
3.972,3.9375,0,0,0,0,0
3.973,3.4375,0,0,0,0,0
3.974,3.4375,0,0,0,0,0
3.975,3.4375,0,0,0,0,0
3.976,4.1875,0,0,0,0,0
3.977,4.375,0,0,0,0,0
3.978,4.8125,0,0,0,0,0
3.979,5.3125,0,0,0,0,0
3.98,5.1875,0,0,0,0,0
3.981,5,0,0,0,0,0
3.982,4.6875,0,0,0,0,0
3.983,5,0,0,0,0,0
3.984,4.5625,0,0,0,0,0
3.985,4.6875,0,0,0,0,0
3.986,4.8125,0,0,0,0,0
3.987,5,0,0,0,0,0
3.988,4.375,0,0,0,0,0
3.989,4.375,0,0,0,0,0
3.99,3.625,0,0,0,0,0
3.991,3.4375,0,0,0,0,0
3.992,3.625,0,0,0,0,0
3.993,3.4375,0,0,0,0,0
3.994,3.875,0,0,0,0,0
3.995,4.6875,0,0,0,0,0
3.996,4.6875,0,0,0,0,0
3.997,4.6875,0,0,0,0,0
3.998,4.25,0,0,0,0,0
3.999,3.75,0,0,0,0,0
4,3.4375,0,0,0,0,0
4.001,3.125,0,0,0,0,0
4.002,3.4375,0,0,0,0,0
4.003,3.75,0,0,0,0,0
4.004,4.375,0,0,0,0,0
4.005,5,0,0,0,0,0
4.006,5,0,0,0,0,0
4.007,4.6875,0,0,0,0,0
4.008,5,0,0,0,0,0
4.009,4.6875,0,0,0,0,0
4.01,4.0625,0,0,0,0,0
4.011,3.4375,0,0,0,0,0
4.012,3.5625,0,0,0,0,0
4.013,3.75,0,0,0,0,0
4.014,4.0625,0,0,0,0,0
4.015,4.6875,0,0,0,0,0
4.016,4.5625,0,0,0,0,0
4.017,4.0625,0,0,0,0,0
4.018,4.6875,0,0,0,0,0
4.019,4.6875,0,0,0,0,0
4.02,4.0625,0,0,0,0,0
4.021,3.4375,0,0,0,0,0
4.022,3.75,0,0,0,0,0
4.023,4.0625,0,0,0,0,0
4.024,4.1875,0,0,0,0,0
4.025,4.375,0,0,0,0,0
4.026,3.75,0,0,0,0,0
4.027,3.4375,0,0,0,0,0
4.028,3.3125,0,0,0,0,0
4.029,3.125,0,0,0,0,0
4.03,2.9375,0,0,0,0,0
4.031,3.125,0,0,0,0,0
4.032,3.4375,0,0,0,0,0
4.033,3.4375,0,0,0,0,0
4.034,3.75,0,0,0,0,0
4.035,4.375,0,0,0,0,0
4.036,4.0625,0,0,0,0,0
4.037,4.0625,0,0,0,0,0
4.038,3.75,0,0,0,0,0
4.039,4.0625,0,0,0,0,0
4.04,3.875,0,0,0,0,0
4.041,4.0625,0,0,0,0,0
4.042,4.0625,0,0,0,0,0
4.043,4.0625,0,0,0,0,0
4.044,4.25,0,0,0,0,0
4.045,4.0625,0,0,0,0,0
4.046,4.1875,0,0,0,0,0
4.047,4.375,0,0,0,0,0
4.048,4.1875,0,0,0,0,0
4.049,4.0625,0,0,0,0,0
4.05,4.1875,0,0,0,0,0
4.051,4.6875,0,0,0,0,0
4.052,4.375,0,0,0,0,0
4.053,4.375,0,0,0,0,0
4.054,4.6875,0,0,0,0,0
4.055,4.375,0,0,0,0,0
4.056,4.0625,0,0,0,0,0
4.057,4.0625,0,0,0,0,0
4.058,4.375,0,0,0,0,0
4.059,4.6875,0,0,0,0,0
4.06,4.25,0,0,0,0,0
4.061,4.6875,0,0,0,0,0
4.062,4.6875,0,0,0,0,0
4.063,4.6875,0,0,0,0,0
4.064,4.5,0,0,0,0,0
4.065,4.375,0,0,0,0,0
4.066,4.25,0,0,0,0,0
4.067,3.75,0,0,0,0,0
4.068,3.75,0,0,0,0,0
4.069,3.4375,0,0,0,0,0
4.07,3.125,0,0,0,0,0
4.071,2.8125,0,0,0,0,0
4.072,3.3125,0,0,0,0,0
4.073,4.0625,0,0,0,0,0
4.074,4.375,0,0,0,0,0
4.075,4.6875,0,0,0,0,0
4.076,4.375,0,0,0,0,0
4.077,3.75,0,0,0,0,0
4.078,4.1875,0,0,0,0,0
4.079,3.75,0,0,0,0,0
4.08,3.3125,0,0,0,0,0
4.081,3.4375,0,0,0,0,0
4.082,3.3125,0,0,0,0,0
4.083,3.125,0,0,0,0,0
4.084,3.4375,0,0,0,0,0
4.085,4.0625,0,0,0,0,0
4.086,3.875,0,0,0,0,0
4.087,4.0625,0,0,0,0,0
4.088,4.0625,0,0,0,0,0
4.089,4.0625,0,0,0,0,0
4.09,4.6875,0,0,0,0,0
4.091,4.6875,0,0,0,0,0
4.092,4.875,0,0,0,0,0
4.093,5,0,0,0,0,0
4.094,4.6875,0,0,0,0,0
4.095,5,0,0,0,0,0
4.096,4.6875,0,0,0,0,0
4.097,4.375,0,0,0,0,0
4.098,5.3125,0,0,0,0,0
4.099,5.625,0,0,0,0,0
4.1,5.5,0,0,0,0,0
4.101,5.3125,0,0,0,0,0
4.102,6.25,0,0,0,0,0
4.103,6.5625,0,0,0,0,0
4.104,6.875,0,0,0,0,0
4.105,7.1875,0,0,0,0,0
4.106,7.1875,0,0,0,0,0
4.107,7.1875,0,0,0,0,0
4.108,7.8125,0,0,0,0,0
4.109,8.125,0,0,0,0,0
4.11,7.9375,0,0,0,0,0
4.111,8.125,0,0,0,0,0
4.112,7.8125,0,0,0,0,0
4.113,7.8125,0,0,0,0,0
4.114,8.25,0,0,0,0,0
4.115,8.75,0,0,0,0,0
4.116,8.9375,0,0,0,0,0
4.117,8.75,0,0,0,0,0
4.118,9.25,0,0,0,0,0
4.119,8.4375,0,0,0,0,0
4.12,8.3125,0,0,0,0,0
4.121,7.8125,0,0,0,0,0
4.122,7.625,0,0,0,0,0
4.123,8.125,0,0,0,0,0
4.124,8.125,0,0,0,0,0
4.125,8.4375,0,0,0,0,0
4.126,8.4375,0,0,0,0,0
4.127,8.4375,0,0,0,0,0
4.128,8.4375,0,0,0,0,0
4.129,8.75,0,0,0,0,0
4.13,8.4375,0,0,0,0,0
4.131,8.125,0,0,0,0,0
4.132,8,0,0,0,0,0
4.133,7.8125,0,0,0,0,0
4.134,7.9375,0,0,0,0,0
4.135,8.125,0,0,0,0,0
4.136,8,0,0,0,0,0
4.137,8.125,0,0,0,0,0
4.138,8.3125,0,0,0,0,0
4.139,8.125,0,0,0,0,0
4.14,8.75,0,0,0,0,0
4.141,8.4375,0,0,0,0,0
4.142,8,0,0,0,0,0
4.143,7.5,0,0,0,0,0
4.144,7.3125,0,0,0,0,0
4.145,7.5,0,0,0,0,0
4.146,7.3125,0,0,0,0,0
4.147,7.5,0,0,0,0,0
4.148,7.3125,0,0,0,0,0
4.149,7.8125,0,0,0,0,0
4.15,7.375,0,0,0,0,0
4.151,7.1875,0,0,0,0,0
4.152,7.5,0,0,0,0,0
4.153,6.875,0,0,0,0,0
4.154,6.5625,0,0,0,0,0
4.155,5.9375,0,0,0,0,0
4.156,5.75,0,0,0,0,0
4.157,5.9375,0,0,0,0,0
4.158,5.9375,0,0,0,0,0
4.159,5.9375,0,0,0,0,0
4.16,5.625,0,0,0,0,0
4.161,5.3125,0,0,0,0,0
4.162,5.1875,0,0,0,0,0
4.163,4.6875,0,0,0,0,0
4.164,4.6875,0,0,0,0,0
4.165,5,0,0,0,0,0
4.166,4.6875,0,0,0,0,0
4.167,5,0,0,0,0,0
4.168,5,0,0,0,0,0
4.169,4.6875,0,0,0,0,0
4.17,3.75,0,0,0,0,0
4.171,3.4375,0,0,0,0,0
4.172,3.875,0,0,0,0,0
4.173,3.75,0,0,0,0,0
4.174,3.75,0,0,0,0,0
4.175,3.4375,0,0,0,0,0
4.176,4.1875,0,0,0,0,0
4.177,4.375,0,0,0,0,0
4.178,4.1875,0,0,0,0,0
4.179,5,0,0,0,0,0
4.18,4.25,0,0,0,0,0
4.181,3.4375,0,0,0,0,0
4.182,3.125,0,0,0,0,0
4.183,2.8125,0,0,0,0,0
4.184,2.8125,0,0,0,0,0
4.185,2.8125,0,0,0,0,0
4.186,2.625,0,0,0,0,0
4.187,2.8125,0,0,0,0,0
4.188,2.8125,0,0,0,0,0
4.189,2.5,0,0,0,0,0
4.19,2.9375,0,0,0,0,0
4.191,3.4375,0,0,0,0,0
4.192,2.8125,0,0,0,0,0
4.193,2.8125,0,0,0,0,0
4.194,2.9375,0,0,0,0,0
4.195,3.125,0,0,0,0,0
4.196,3.4375,0,0,0,0,0
4.197,3.4375,0,0,0,0,0
4.198,3.5625,0,0,0,0,0
4.199,3.125,0,0,0,0,0
4.2,3,0,0,0,0,0
4.201,2.8125,0,0,0,0,0
4.202,2.8125,0,0,0,0,0
4.203,2.5,0,0,0,0,0
4.204,1.875,0,0,0,0,0
4.205,1.875,0,0,0,0,0
4.206,1.5625,0,0,0,0,0
4.207,2.1875,0,0,0,0,0
4.208,1.875,0,0,0,0,0
4.209,1.875,0,0,0,0,0
4.21,2,0,0,0,0,0
4.211,2.1875,0,0,0,0,0
4.212,2.3125,0,0,0,0,0
4.213,2.5,0,0,0,0,0
4.214,2.1875,0,0,0,0,0
4.215,2.1875,0,0,0,0,0
4.216,2.5,0,0,0,0,0
4.217,2.8125,0,0,0,0,0
4.218,2.6875,0,0,0,0,0
4.219,2.1875,0,0,0,0,0
4.22,1.25,0,0,0,0,0
4.221,0.9375,0,0,0,0,0
4.222,1.0625,0,0,0,0,0
4.223,1.5625,0,0,0,0,0
4.224,1.5625,0,0,0,0,0
4.225,1.875,0,0,0,0,0
4.226,1.875,0,0,0,0,0
4.227,2.1875,0,0,0,0,0
4.228,2,0,0,0,0,0
4.229,2.5,0,0,0,0,0
4.23,2.8125,0,0,0,0,0
4.231,2.8125,0,0,0,0,0
4.232,2.8125,0,0,0,0,0
4.233,2.8125,0,0,0,0,0
4.234,3,0,0,0,0,0
4.235,2.1875,0,0,0,0,0
4.236,2.8125,0,0,0,0,0
4.237,2.5,0,0,0,0,0
4.238,2.8125,0,0,0,0,0
4.239,2.8125,0,0,0,0,0
4.24,3.25,0,0,0,0,0
4.241,3.125,0,0,0,0,0
4.242,2.6875,0,0,0,0,0
4.243,2.1875,0,0,0,0,0
4.244,2.5,0,0,0,0,0
4.245,3.125,0,0,0,0,0
4.246,2.8125,0,0,0,0,0
4.247,2.8125,0,0,0,0,0
4.248,2.6875,0,0,0,0,0
4.249,2.5,0,0,0,0,0
4.25,2.0625,0,0,0,0,0
4.251,1.5625,0,0,0,0,0
4.252,1.6875,0,0,0,0,0
4.253,2.1875,0,0,0,0,0
4.254,2.8125,0,0,0,0,0
4.255,2.8125,0,0,0,0,0
4.256,3.25,0,0,0,0,0
4.257,3.125,0,0,0,0,0
4.258,3.125,0,0,0,0,0
4.259,2.8125,0,0,0,0,0
4.26,3.25,0,0,0,0,0
4.261,3.125,0,0,0,0,0
4.262,3.75,0,0,0,0,0
4.263,4.0625,0,0,0,0,0
4.264,3.3125,0,0,0,0,0
4.265,3.125,0,0,0,0,0
4.266,2.8125,0,0,0,0,0
4.267,2.1875,0,0,0,0,0
4.268,1.6875,0,0,0,0,0
4.269,2.1875,0,0,0,0,0
4.27,2.5,1,0,0,0,0
4.271,2.5,0,0,0,0,0
4.272,1.875,0,0,0,0,0
4.273,1.25,0,0,0,0,0
4.274,1.5625,0,0,0,0,0
4.275,1.5625,0,0,0,0,0
4.276,2,0,0,0,0,0
4.277,2.5,0,0,0,0,0
4.278,2.375,0,0,0,0,0
4.279,1.875,0,0,0,0,0
4.28,2.3125,0,0,0,0,0
4.281,2.8125,0,0,0,0,0
4.282,3.125,0,0,0,0,0
4.283,3.75,0,0,0,0,0
4.284,4.0625,0,0,0,0,0
4.285,4.0625,0,0,0,0,0
4.286,3.9375,0,0,0,0,0
4.287,3.4375,0,0,0,0,0
4.288,3.125,0,0,0,0,0
4.289,3.4375,0,0,0,0,0
4.29,3.75,0,0,0,0,0
4.291,4.6875,0,0,0,0,0
4.292,4.6875,0,0,0,0,0
4.293,5,0,0,0,0,0
4.294,5.625,0,0,0,0,0
4.295,6.25,0,0,0,0,0
4.296,7,0,0,0,0,0
4.297,7.8125,0,0,0,0,0
4.298,8.5625,0,0,0,0,0
4.299,10,0,0,0,0,0
4.3,12,0,0,0,0,0
4.301,14.375,0,0,0,0,0
4.302,15.813,0,0,0,0,0
4.303,16.875,0,0,0,0,0
4.304,17.813,0,0,0,0,0
4.305,18.438,0,0,0,0,0
4.306,17.5,0,0,0,0,0
4.307,17.5,0,0,0,0,0
4.308,18.125,0,0,0,0,0
4.309,18.125,0,0,0,0,0
4.31,18.438,0,0,0,0,0
4.311,18.75,0,0,0,0,0
4.312,19.25,0,0,0,0,0
4.313,18.75,0,1,0,0,0
4.314,19.063,0,0,0,0,0
4.315,19.063,0,0,0,0,0
4.316,18.625,0,0,0,0,0
4.317,18.75,0,0,0,0,0
4.318,18.75,0,0,0,0,0
4.319,18.438,0,0,0,0,0
4.32,17.063,0,0,0,0,0
4.321,15.313,0,0,0,0,0
4.322,13.75,0,0,0,0,0
4.323,12.188,0,0,0,0,0
4.324,9.875,0,0,0,0,0
4.325,8.4375,0,0,0,0,0
4.326,7.5,0,0,0,0,0
4.327,6.875,0,0,0,0,0
4.328,7,0,0,0,0,0
4.329,7.5,0,0,0,0,0
4.33,8.875,0,0,0,0,0
4.331,10,0,0,0,0,0
4.332,11.125,0,0,0,0,0
4.333,12.813,0,0,0,0,0
4.334,14.875,0,0,0,0,0
4.335,15.938,0,0,0,0,0
4.336,16.563,0,0,0,0,0
4.337,17.188,0,0,0,0,0
4.338,16.438,0,0,0,0,0
4.339,16.875,0,0,0,0,0
4.34,17.375,0,0,0,0,0
4.341,16.875,0,0,0,0,0
4.342,16.75,0,0,0,0,0
4.343,16.25,0,0,0,0,0
4.344,16.25,0,0,0,0,0
4.345,15.313,0,0,0,0,0
4.346,14.375,0,0,0,0,0
4.347,13.75,0,0,0,0,0
4.348,13.125,0,0,0,0,0
4.349,12.188,0,0,0,0,0
4.35,11.438,0,0,0,0,0
4.351,10.313,0,0,0,0,0
4.352,9.0625,0,0,0,0,0
4.353,8.125,0,0,0,0,0
4.354,7.9375,0,0,0,0,0
4.355,7.5,0,0,0,0,0
4.356,6.75,0,0,0,0,0
4.357,6.875,0,0,0,0,0
4.358,7.0625,0,0,0,0,0
4.359,6.5625,0,0,0,0,0
4.36,6.25,0,0,0,0,0
4.361,5.9375,0,0,0,0,0
4.362,6.375,0,0,0,0,0
4.363,6.5625,0,0,0,0,0
4.364,6.4375,0,0,0,0,0
4.365,6.5625,0,0,0,0,0
4.366,7.0625,0,0,0,0,0
4.367,6.5625,0,0,0,0,0
4.368,6.75,0,0,0,0,0
4.369,6.5625,0,0,0,0,0
4.37,6.0625,0,0,0,0,0
4.371,5.625,0,0,0,0,0
4.372,5.1875,0,0,0,0,0
4.373,4.375,0,0,0,0,0
4.374,3.625,0,0,0,0,0
4.375,2.8125,0,0,0,0,0
4.376,2.0625,0,0,0,0,0
4.377,1.25,0,0,0,0,0
4.378,0.625,0,0,0,0,0
4.379,0.625,0,0,0,0,0
4.38,1.0625,0,0,0,0,0
4.381,0.9375,0,0,0,0,0
4.382,0.75,0,0,0,0,0
4.383,0.3125,0,0,0,0,0
4.384,-0.3125,0,0,0,0,0
4.385,-0.625,0,0,0,0,0
4.386,-0.3125,0,0,0,0,0
4.387,-0.625,0,0,0,0,0
4.388,-0.5,0,0,0,0,0
4.389,-0.625,0,0,0,0,0
4.39,-0.625,0,0,0,0,0
4.391,-0.9375,0,0,0,0,0
4.392,-0.9375,0,0,0,0,0
4.393,-1.25,0,0,0,0,0
4.394,-1.375,0,0,0,0,0
4.395,-0.9375,0,0,0,0,0
4.396,-0.5,0,0,0,0,0
4.397,-0.625,0,0,0,0,0
4.398,-0.9375,0,0,0,0,0
4.399,-0.625,0,0,0,0,0
4.4,-0.625,0,0,0,0,0
4.401,-0.3125,0,0,0,0,0
4.402,-0.625,0,0,0,0,0
4.403,-0.9375,0,0,0,0,0
4.404,-0.75,0,0,0,0,0
4.405,-0.625,0,0,0,0,0
4.406,-0.625,0,0,0,0,0
4.407,0,0,0,0,0,0
4.408,0.625,0,0,0,0,0
4.409,0.625,0,0,0,0,0
4.41,1.0625,0,0,0,0,0
4.411,0.9375,0,0,0,0,0
4.412,0.9375,0,0,0,0,0
4.413,0.625,0,0,0,0,0
4.414,1.25,0,0,0,0,0
4.415,1.875,0,0,0,0,0
4.416,1.6875,0,0,0,0,0
4.417,1.875,0,0,0,0,0
4.418,2.1875,0,0,0,0,0
4.419,2.8125,0,0,0,0,0
4.42,2.6875,0,0,0,0,0
4.421,2.5,0,0,0,0,0
4.422,2.9375,0,0,0,0,0
4.423,2.5,0,0,0,0,0
4.424,2.6875,0,0,0,0,0
4.425,2.1875,0,0,0,0,0
4.426,2.625,0,0,0,0,0
4.427,2.8125,0,0,1,0,0
4.428,2.8125,0,0,0,0,0
4.429,2.8125,0,0,0,0,0
4.43,3.3125,0,0,0,0,0
4.431,3.125,0,0,0,0,0
4.432,3.875,0,0,0,0,0
4.433,4.6875,0,0,0,0,0
4.434,4.0625,0,0,0,0,0
4.435,3.4375,0,0,0,0,0
4.436,3.5625,0,0,0,0,0
4.437,4.375,0,0,0,0,0
4.438,3.9375,0,0,0,0,0
4.439,3.125,0,0,0,0,0
4.44,2.6875,0,0,0,0,0
4.441,2.5,0,0,0,0,0
4.442,2.6875,0,0,0,0,0
4.443,2.5,0,0,0,0,0
4.444,2.1875,0,0,0,0,0
4.445,2.5,0,0,0,0,0
4.446,3.125,0,0,0,0,0
4.447,4.0625,0,0,0,0,0
4.448,4.375,0,0,0,0,0
4.449,4.375,0,0,0,0,0
4.45,3.9375,0,0,0,0,0
4.451,4.0625,0,0,0,0,0
4.452,4.375,0,0,0,0,0
4.453,5,0,0,0,0,0
4.454,4.5625,0,0,0,0,0
4.455,4.0625,0,0,0,0,0
4.456,3.9375,0,0,0,0,0
4.457,3.75,0,0,0,0,0
4.458,3.5625,0,0,0,0,0
4.459,4.0625,0,0,0,0,0
4.46,3.625,0,0,0,0,0
4.461,3.4375,0,0,0,0,0
4.462,3.5625,0,0,0,0,0
4.463,3.125,0,0,0,0,0
4.464,3.875,0,0,0,0,0
4.465,3.75,0,0,0,0,0
4.466,4.0625,0,0,0,0,0
4.467,3.75,0,0,0,0,0
4.468,3.9375,0,0,0,0,0
4.469,3.75,0,0,0,0,0
4.47,3.625,0,0,0,0,0
4.471,3.75,0,0,0,0,0
4.472,3.4375,0,0,0,0,0
4.473,3.125,0,0,0,0,0
4.474,3.125,0,0,0,0,0
4.475,3.4375,0,0,0,0,0
4.476,3.75,0,0,0,0,0
4.477,4.6875,0,0,0,0,0
4.478,4.375,0,0,0,0,0
4.479,4.0625,0,0,0,0,0
4.48,4.0625,0,0,0,0,0
4.481,3.75,0,0,0,0,0
4.482,3.75,0,0,0,0,0
4.483,3.75,0,0,0,0,0
4.484,4.0625,0,0,0,0,0
4.485,4.375,0,0,0,0,0
4.486,3.625,0,0,0,0,0
4.487,3.4375,0,0,0,0,0
4.488,4.0625,0,0,0,0,0
4.489,4.0625,0,0,0,0,0
4.49,3.75,0,0,0,0,0
4.491,3.4375,0,0,0,0,0
4.492,3.625,0,0,0,0,0
4.493,4.0625,0,0,0,0,0
4.494,3.4375,0,0,0,0,0
4.495,3.4375,0,0,0,0,0
4.496,3.4375,0,0,0,0,0
4.497,3.4375,0,0,0,0,0
4.498,3.75,0,0,0,0,0
4.499,3.75,0,0,0,0,0
4.5,3.625,0,0,0,0,0
4.501,3.4375,0,0,0,0,0
4.502,3.3125,0,0,0,0,0
4.503,3.125,0,0,0,0,0
4.504,3.4375,0,0,0,0,0
4.505,3.75,0,0,0,0,0
4.506,4.0625,0,0,0,0,0
4.507,4.6875,0,0,0,0,0
4.508,3.625,0,0,0,0,0
4.509,2.8125,0,0,0,0,0
4.51,2.6875,0,0,0,0,0
4.511,2.5,0,0,0,0,0
4.512,2.5,0,0,0,0,0
4.513,2.1875,0,0,0,0,0
4.514,2.5,0,0,0,0,0
4.515,2.8125,0,0,0,0,0
4.516,2.625,0,0,0,0,0
4.517,2.8125,0,0,0,0,0
4.518,3.125,0,0,0,0,0
4.519,3.125,0,0,0,0,0
4.52,2.9375,0,0,0,0,0
4.521,2.8125,0,0,0,0,0
4.522,3.5625,0,0,0,0,0
4.523,4.0625,0,0,0,0,0
4.524,3.625,0,0,0,0,0
4.525,3.4375,0,0,0,0,0
4.526,3.9375,0,0,0,0,0
4.527,3.4375,0,0,0,0,0
4.528,3,0,0,0,0,0
4.529,3.125,0,0,0,0,0
4.53,3.125,0,0,0,0,0
4.531,3.125,0,0,0,0,0
4.532,3.4375,0,0,0,0,0
4.533,4.375,0,0,0,0,0
4.534,4.375,0,0,0,0,0
4.535,4.375,0,0,0,0,0
4.536,3.4375,0,0,0,0,0
4.537,3.125,0,0,0,0,0
4.538,3.25,0,0,0,0,0
4.539,4.0625,0,0,0,0,0
4.54,3.4375,0,0,0,0,0
4.541,3.4375,0,0,0,0,0
4.542,3.625,0,0,0,0,0
4.543,4.0625,0,0,0,0,0
4.544,3.3125,0,0,0,0,0
4.545,3.4375,0,0,0,0,0
4.546,3.125,0,0,0,0,0
4.547,2.5,0,0,0,0,0
4.548,2.0625,0,0,0,0,0
4.549,1.875,0,0,0,0,0
4.55,2.1875,0,0,0,0,0
4.551,2.5,0,0,0,0,0
4.552,2.1875,0,0,0,0,0
4.553,2.5,0,0,0,0,0
4.554,2.5,0,0,0,0,0
4.555,2.5,0,0,0,0,0
4.556,2.9375,0,0,0,0,0
4.557,4.0625,0,0,0,0,0
4.558,3.75,0,0,0,0,0
4.559,3.75,0,0,0,0,0
4.56,3.4375,0,0,0,0,0
4.561,3.4375,0,0,0,0,0
4.562,3.3125,0,0,0,0,0
4.563,2.8125,0,0,0,0,0
4.564,3,0,0,0,0,0
4.565,2.5,0,0,0,0,0
4.566,2.1875,0,0,0,0,0
4.567,2.1875,0,0,0,0,0
4.568,2.6875,0,0,0,0,0
4.569,2.1875,0,0,0,0,0
4.57,2.5,0,0,0,0,0
4.571,2.1875,0,0,0,0,0
4.572,2.0625,0,0,0,0,0
4.573,2.1875,0,0,0,0,0
4.574,2.8125,0,0,0,0,0
4.575,2.1875,0,0,0,0,0
4.576,2.625,0,0,0,0,0
4.577,2.5,0,0,0,0,0
4.578,1.5625,0,0,0,0,0
4.579,1.5625,0,0,0,0,0
4.58,1.6875,0,0,0,0,0
4.581,1.5625,0,0,0,0,0
4.582,1.4375,0,0,0,0,0
4.583,1.5625,0,0,0,0,0
4.584,1.875,0,0,0,0,0
4.585,2.1875,0,0,0,0,0
4.586,2.0625,0,0,0,0,0
4.587,1.875,0,0,0,0,0
4.588,1.75,0,0,0,0,0
4.589,1.875,0,0,0,0,0
4.59,2.0625,0,0,0,0,0
4.591,1.875,0,0,0,0,0
4.592,2.1875,0,0,0,0,0
4.593,2.1875,0,0,0,0,0
4.594,2.9375,0,0,0,0,0
4.595,3.4375,0,0,0,0,0
4.596,3,0,0,0,0,0
4.597,3.4375,0,0,0,0,0
4.598,3.75,0,0,0,0,0
4.599,3.75,0,0,0,0,0
4.6,3.75,0,0,0,0,0
4.601,3.4375,0,0,0,0,0
4.602,3.4375,0,0,0,0,0
4.603,3.75,0,0,0,0,0
4.604,4.375,0,0,0,0,0
4.605,5,0,0,0,0,0
4.606,5.1875,0,0,0,0,0
4.607,4.6875,0,0,0,0,0
4.608,4.0625,0,0,0,0,0
4.609,4.0625,0,0,0,0,0
4.61,3.9375,0,0,0,0,0
4.611,3.75,0,0,0,0,0
4.612,3,0,0,0,0,0
4.613,3.125,0,0,0,0,0
4.614,3.5625,0,0,0,0,0
4.615,4.6875,0,0,0,0,0
4.616,5.9375,0,0,0,0,0
4.617,6.5625,0,0,0,0,0
4.618,6.25,0,0,0,0,0
4.619,5.9375,0,0,0,0,0
4.62,5.5,0,0,0,0,0
4.621,5.3125,0,0,0,0,0
4.622,5.1875,0,0,0,0,0
4.623,5.3125,0,0,0,0,0
4.624,5.3125,0,0,0,0,0
4.625,5,0,0,0,0,0
4.626,5.75,0,0,0,0,0
4.627,5.625,0,0,0,0,0
4.628,5.3125,0,0,0,0,0
4.629,5.3125,0,0,0,0,0
4.63,5.625,0,0,0,0,0
4.631,5.625,0,0,0,0,0
4.632,6.5625,0,0,0,0,0
4.633,7.1875,0,0,0,0,0
4.634,6.875,0,0,0,0,0
4.635,6.5625,0,0,0,0,0
4.636,6.5625,0,0,0,0,0
4.637,6.875,0,0,0,0,0
4.638,6.4375,0,0,0,0,0
4.639,6.5625,0,0,0,0,0
4.64,6.4375,0,0,0,0,0
4.641,6.5625,0,0,0,0,0
4.642,6.75,0,0,0,0,0
4.643,6.25,0,0,0,0,0
4.644,6.875,0,0,0,0,0
4.645,6.875,0,0,0,0,0
4.646,7.5,0,0,0,0,0
4.647,7.5,0,0,0,0,0
4.648,7.375,0,0,0,0,0
4.649,7.5,0,0,0,0,0
4.65,7.5,0,0,0,0,0
4.651,7.1875,0,0,0,0,0
4.652,7.1875,0,0,0,0,0
4.653,7.5,0,0,0,0,0
4.654,7.625,0,0,0,0,0
4.655,7.5,0,0,0,0,0
4.656,8.125,0,0,0,1,0
4.657,8.4375,0,0,0,0,0
4.658,7.6875,0,0,0,0,0
4.659,7.8125,0,0,0,0,0
4.66,7.6875,0,0,0,0,0
4.661,7.5,0,0,0,0,0
4.662,7.3125,0,0,0,0,0
4.663,7.5,0,0,0,0,0
4.664,7.8125,0,0,0,0,0
4.665,7.8125,0,0,0,0,0
4.666,8.3125,0,0,0,0,0
4.667,7.5,0,0,0,0,0
4.668,7.6875,0,0,0,0,0
4.669,7.5,0,0,0,0,0
4.67,7.0625,0,0,0,0,0
4.671,6.875,0,0,0,0,0
4.672,7,0,0,0,0,0
4.673,6.875,0,0,0,0,0
4.674,7.1875,0,0,0,0,0
4.675,7.1875,0,0,0,0,0
4.676,6.5625,0,0,0,0,0
4.677,6.5625,0,0,0,0,0
4.678,7,0,0,0,0,0
4.679,7.5,0,0,0,0,0
4.68,7.5,0,0,0,0,0
4.681,7.8125,0,0,0,0,0
4.682,7.0625,0,0,0,0,0
4.683,6.25,0,0,0,0,0
4.684,6.875,0,0,0,0,0
4.685,7.1875,0,0,0,0,0
4.686,6.875,0,0,0,0,0
4.687,6.5625,0,0,0,0,0
4.688,6.875,0,0,0,0,0
4.689,6.875,0,0,0,0,0
4.69,6.5625,0,0,0,0,0
4.691,6.5625,0,0,0,0,0
4.692,6.125,0,0,0,0,0
4.693,5.9375,0,0,0,0,0
4.694,5.3125,0,0,0,0,0
4.695,5.625,0,0,0,0,0
4.696,5.4375,0,0,0,0,0
4.697,5.625,0,0,0,0,0
4.698,5.625,0,0,0,0,0
4.699,5.625,0,0,0,0,0
4.7,5.625,0,0,0,0,0
4.701,5.3125,0,0,0,0,0
4.702,5.625,0,0,0,0,0
4.703,5.625,0,0,0,0,0
4.704,5.625,0,0,0,0,0
4.705,5.625,0,0,0,0,0
4.706,5.625,0,0,0,0,0
4.707,5.625,0,0,0,0,0
4.708,5.625,0,0,0,0,0
4.709,5.625,0,0,0,0,0
4.71,5.4375,0,0,0,0,0
4.711,5.625,0,0,0,0,0
4.712,5.3125,0,0,0,0,0
4.713,5.3125,0,0,0,0,0
4.714,5.4375,0,0,0,0,0
4.715,5.625,0,0,0,0,0
4.716,5.5,0,0,0,0,0
4.717,5.625,0,0,0,0,0
4.718,4.375,0,0,0,0,0
4.719,3.75,0,0,0,0,0
4.72,3.75,0,0,0,0,0
4.721,3.75,0,0,0,0,0
4.722,3.875,0,0,0,0,0
4.723,4.375,0,0,0,0,0
4.724,4.5,0,0,0,0,0
4.725,4.6875,0,0,0,0,0
4.726,5,0,0,0,0,0
4.727,5,0,0,0,0,0
4.728,4.5625,0,0,0,0,0
4.729,4.375,0,0,0,0,0
4.73,4.5625,0,0,0,0,0
4.731,4.6875,0,0,0,0,1
4.732,5,0,0,0,0,0
4.733,5,0,0,0,0,0
4.734,5.3125,0,0,0,0,0
4.735,5.9375,0,0,0,0,0
4.736,5.5,0,0,0,0,0
4.737,5.625,0,0,0,0,0
4.738,4.875,0,0,0,0,0
4.739,5.3125,0,0,0,0,0
4.74,5.4375,0,0,0,0,0
4.741,5.3125,0,0,0,0,0
4.742,5.4375,0,0,0,0,0
4.743,5,0,0,0,0,0
4.744,5,0,0,0,0,0
4.745,5.3125,0,0,0,0,0
4.746,5.4375,0,0,0,0,0
4.747,5.9375,0,0,0,0,0
4.748,5.625,0,0,0,0,0
4.749,5.625,0,0,0,0,0
4.75,4.875,0,0,0,0,0
4.751,4.375,0,0,0,0,0
4.752,3.875,0,0,0,0,0
4.753,4.6875,0,0,0,0,0
4.754,4.25,0,0,0,0,0
4.755,4.0625,0,0,0,0,0
4.756,4.6875,0,0,0,0,0
4.757,5,0,0,0,0,0
4.758,5.1875,0,0,0,0,0
4.759,5.3125,0,0,0,0,0
4.76,4.8125,0,0,0,0,0
4.761,4.6875,0,0,0,0,0
4.762,4.6875,0,0,0,0,0
4.763,4.6875,0,0,0,0,0
4.764,5.125,0,0,0,0,0
4.765,5,0,0,0,0,0
4.766,5,0,0,0,0,0
4.767,5,0,0,0,0,0
4.768,4.875,0,0,0,0,0
4.769,4.6875,0,0,0,0,0
4.77,4.375,0,0,0,0,0
4.771,4.6875,0,0,0,0,0
4.772,4.375,0,0,0,0,0
4.773,4.6875,0,0,0,0,0
4.774,5,0,0,0,0,0
4.775,5.3125,0,0,0,0,0
4.776,4.6875,0,0,0,0,0
4.777,4.6875,0,0,0,0,0
4.778,4.0625,0,0,0,0,0
4.779,4.0625,0,0,0,0,0
4.78,4.375,0,0,0,0,0
4.781,4.375,0,0,0,0,0
4.782,5,0,0,0,0,0
4.783,5.9375,0,0,0,0,0
4.784,5.3125,0,0,0,0,0
4.785,4.6875,0,0,0,0,0
4.786,4.5,0,0,0,0,0
4.787,4.375,0,0,0,0,0
4.788,4.375,0,0,0,0,0
4.789,4.375,0,0,0,0,0
4.79,5,0,0,0,0,0
4.791,5.625,0,0,0,0,0
4.792,5.625,0,0,0,0,0
4.793,5.625,0,0,0,0,0
4.794,5.3125,0,0,0,0,0
4.795,4.6875,0,0,0,0,0
4.796,4.875,0,0,0,0,0
4.797,4.375,0,0,0,0,0
4.798,4.375,0,0,0,0,0
4.799,4.375,0,0,0,0,0
4.8,4.375,0,0,0,0,0
4.801,4.375,0,0,0,0,0
4.802,4.25,0,0,0,0,0
4.803,4.375,0,0,0,0,0
4.804,5.3125,0,0,0,0,0
4.805,5.9375,0,0,0,0,0
4.806,6.125,0,0,0,0,0
4.807,5.625,0,0,0,0,0
4.808,5.625,0,0,0,0,0
4.809,5.625,0,0,0,0,0
4.81,5.5,0,0,0,0,0
4.811,5.3125,0,0,0,0,0
4.812,5.1875,0,0,0,0,0
4.813,5,0,0,0,0,0
4.814,4.6875,0,0,0,0,0
4.815,4.6875,0,0,0,0,0
4.816,5.3125,0,0,0,0,0
4.817,5.9375,0,0,0,0,0
4.818,5.5,0,0,0,0,0
4.819,5.3125,0,0,0,0,0
4.82,4.5625,0,0,0,0,0
4.821,3.4375,0,0,0,0,0
4.822,3.3125,0,0,0,0,0
4.823,3.4375,0,0,0,0,0
4.824,3.4375,0,0,0,0,0
4.825,3.75,0,0,0,0,0
4.826,3.4375,0,0,0,0,0
4.827,3.75,0,0,0,0,0
4.828,4.0625,0,0,0,0,0
4.829,4.6875,0,0,0,0,0
4.83,5,0,0,0,0,0
4.831,5.3125,0,0,0,0,0
4.832,5.5,0,0,0,0,0
4.833,5.3125,0,0,0,0,0
4.834,5.4375,0,0,0,0,0
4.835,5.625,0,0,0,0,0
4.836,5.3125,0,0,0,0,0
4.837,5,0,0,0,0,0
4.838,5,0,0,0,0,0
4.839,5.3125,0,0,0,0,0
4.84,4.875,0,0,0,0,0
4.841,4.6875,0,0,0,0,0
4.842,5.1875,0,0,0,0,0
4.843,5,0,0,0,0,0
4.844,5.125,0,0,0,0,0
4.845,5.625,0,0,0,0,0
4.846,5.1875,0,0,0,0,0
4.847,4.6875,0,0,0,0,0
4.848,4.0625,0,0,0,0,0
4.849,4.375,0,0,0,0,0
4.85,4.375,0,0,0,0,0
4.851,4.375,0,0,0,0,0
4.852,3.9375,0,0,0,0,0
4.853,3.4375,0,0,0,0,0
4.854,3.75,0,0,0,0,0
4.855,3.75,0,0,0,0,0
4.856,4.1875,0,0,0,0,0
4.857,4.375,0,0,0,0,0
4.858,4.6875,0,0,0,0,0
4.859,5,0,0,0,0,0
4.86,4.6875,0,0,0,0,0
4.861,5,0,0,0,0,0
4.862,5.125,0,0,0,0,0
4.863,5.3125,0,0,0,0,0
4.864,5.1875,0,0,0,0,0
4.865,5,0,0,0,0,0
4.866,5,0,0,0,0,0
4.867,5.625,0,0,0,0,0
4.868,5.4375,0,0,0,0,0
4.869,5.625,0,0,0,0,0
4.87,5.5,0,0,0,0,0
4.871,5,0,0,0,0,0
4.872,4.6875,0,0,0,0,0
4.873,4.375,0,0,0,0,0
4.874,4.5625,0,0,0,0,0
4.875,4.0625,0,0,0,0,0
4.876,4.6875,0,0,0,0,0
4.877,5.3125,0,0,0,0,0
4.878,4.6875,0,0,0,0,0
4.879,4.6875,0,0,0,0,0
4.88,4.8125,0,0,0,0,0
4.881,5.3125,0,0,0,0,0
4.882,5.9375,0,0,0,0,0
4.883,5.9375,0,0,0,0,0
4.884,6.125,0,0,0,0,0
4.885,5.9375,0,0,0,0,0
4.886,5.625,0,0,0,0,0
4.887,5.9375,0,0,0,0,0
4.888,5.9375,0,0,0,0,0
4.889,5.9375,0,0,0,0,0
4.89,5.625,0,0,0,0,0
4.891,6.25,0,0,0,0,0
4.892,6.6875,0,0,0,0,0
4.893,7.1875,0,0,0,0,0
4.894,7.8125,0,0,0,0,0
4.895,8.125,0,0,0,0,0
4.896,7.8125,0,0,0,0,0
4.897,8.125,0,0,0,0,0
4.898,8.4375,0,0,0,0,0
4.899,8.125,0,0,0,0,0
4.9,8.25,0,0,0,0,0
4.901,8.125,0,0,0,0,0
4.902,8,0,0,0,0,0
4.903,7.8125,0,0,0,0,0
4.904,7.9375,0,0,0,0,0
4.905,8.4375,0,0,0,0,0
4.906,8.875,0,0,0,0,0
4.907,10,0,0,0,0,0
4.908,9.5,0,0,0,0,0
4.909,9.6875,0,0,0,0,0
4.91,8.9375,0,0,0,0,0
4.911,8.125,0,0,0,0,0
4.912,8.3125,0,0,0,0,0
4.913,8.125,0,0,0,0,0
4.914,8.75,0,0,0,0,0
4.915,9.0625,0,0,0,0,0
4.916,8.75,0,0,0,0,0
4.917,8.4375,0,0,0,0,0
4.918,8.875,0,0,0,0,0
4.919,8.75,0,0,0,0,0
4.92,8.4375,0,0,0,0,0
4.921,8.4375,0,0,0,0,0
4.922,8.4375,0,0,0,0,0
4.923,8.4375,0,0,0,0,0
4.924,8.3125,0,0,0,0,0
4.925,8.125,0,0,0,0,0
4.926,8.5625,0,0,0,0,0
4.927,9.0625,0,0,0,0,0
4.928,9.0625,0,0,0,0,0
4.929,9.375,0,0,0,0,0
4.93,8.75,0,0,0,0,0
4.931,8.75,0,0,0,0,0
4.932,8.875,0,0,0,0,0
4.933,8.75,0,0,0,0,0
4.934,8.875,0,0,0,0,0
4.935,8.75,0,0,0,0,0
4.936,8,0,0,0,0,0
4.937,6.875,0,0,0,0,0
4.938,7.5,0,0,0,0,0
4.939,7.5,0,0,0,0,0
4.94,7.9375,0,0,0,0,0
4.941,9.0625,0,0,0,0,0
4.942,8.4375,0,0,0,0,0
4.943,7.8125,0,0,0,0,0
4.944,7.5,0,0,0,0,0
4.945,7.5,0,0,0,0,0
4.946,7.1875,0,0,0,0,0
4.947,6.875,0,0,0,0,0
4.948,7,0,0,0,0,0
4.949,6.875,0,0,0,0,0
4.95,6.25,0,0,0,0,0
4.951,5.9375,0,0,0,0,0
4.952,5.75,0,0,0,0,0
4.953,5.625,0,0,0,0,0
4.954,5.625,0,0,0,0,0
4.955,5,0,0,0,0,0
4.956,4.6875,0,0,0,0,0
4.957,4.375,0,0,0,0,0
4.958,4.1875,0,0,0,0,0
4.959,4.0625,0,0,0,0,0
4.96,4.25,0,0,0,0,0
4.961,4.375,0,0,0,0,0
4.962,4.375,0,0,0,0,0
4.963,4.6875,0,0,0,0,0
4.964,4.5,0,0,0,0,0
4.965,5,0,0,0,0,0
4.966,4.5625,0,0,0,0,0
4.967,4.0625,0,0,0,0,0
4.968,4.6875,0,0,0,0,0
4.969,4.375,0,0,0,0,0
4.97,4.1875,0,0,0,0,0
4.971,4.375,0,0,0,0,0
4.972,4.375,0,0,0,0,0
4.973,4.375,0,0,0,0,0
4.974,4.25,0,0,0,0,0
4.975,3.75,0,0,0,0,0
4.976,3.625,0,0,0,0,0
4.977,3.75,0,0,0,0,0
4.978,3.75,0,0,0,0,0
4.979,3.75,0,0,0,0,0
4.98,3.625,0,0,0,0,0
4.981,3.125,0,0,0,0,0
4.982,3.125,0,0,0,0,0
4.983,2.8125,0,0,0,0,0
4.984,2.8125,0,0,0,0,0
4.985,2.8125,0,0,0,0,0
4.986,2.375,0,0,0,0,0
4.987,2.1875,0,0,0,0,0
4.988,2,0,0,0,0,0
4.989,2.5,0,0,0,0,0
4.99,2.5,0,0,0,0,0
4.991,2.8125,0,0,0,0,0
4.992,2.8125,0,0,0,0,0
4.993,2.5,0,0,0,0,0
4.994,3.125,0,0,0,0,0
4.995,3.125,0,0,0,0,0
4.996,3.75,0,0,0,0,0
4.997,3.4375,0,0,0,0,0
4.998,3.4375,0,0,0,0,0
4.999,3.4375,0,0,0,0,0
5,3.5625,0,0,0,0,0
5.001,3.4375,0,0,0,0,0
5.002,3,0,0,0,0,0
5.003,2.8125,0,0,0,0,0
5.004,3.25,0,0,0,0,0
5.005,3.4375,0,0,0,0,0
5.006,2.8125,0,0,0,0,0
5.007,2.1875,0,0,0,0,0
5.008,2,0,0,0,0,0
5.009,1.875,0,0,0,0,0
5.01,2.3125,0,0,0,0,0
5.011,2.5,0,0,0,0,0
5.012,2.8125,0,0,0,0,0
5.013,2.8125,0,0,0,0,0
5.014,3.125,0,0,0,0,0
5.015,2.8125,0,0,0,0,0
5.016,2.8125,0,0,0,0,0
5.017,2.5,0,0,0,0,0
5.018,2.6875,0,0,0,0,0
5.019,2.8125,0,0,0,0,0
5.02,2.8125,0,0,0,0,0
5.021,2.5,0,0,0,0,0
5.022,2.625,0,0,0,0,0
5.023,3.4375,0,0,0,0,0
5.024,2.8125,0,0,0,0,0
5.025,3.4375,0,0,0,0,0
5.026,3,0,0,0,0,0
5.027,3.125,0,0,0,0,0
5.028,3,0,0,0,0,0
5.029,3.125,0,0,0,0,0
5.03,2.8125,0,0,0,0,0
5.031,2.8125,0,0,0,0,0
5.032,2.5,0,0,0,0,0
5.033,2.1875,0,0,0,0,0
5.034,2.625,0,0,0,0,0
5.035,2.5,0,0,0,0,0
5.036,2.5,0,0,0,0,0
5.037,2.8125,0,0,0,0,0
5.038,3.25,0,0,0,0,0
5.039,3.125,0,0,0,0,0
5.04,2.375,0,0,0,0,0
5.041,1.875,0,0,0,0,0
5.042,2.1875,0,0,0,0,0
5.043,2.5,0,0,0,0,0
5.044,2.1875,0,0,0,0,0
5.045,2.5,0,0,0,0,0
5.046,2.0625,0,0,0,0,0
5.047,1.875,0,0,0,0,0
5.048,1.6875,0,0,0,0,0
5.049,2.1875,0,0,0,0,0
5.05,2.3125,0,0,0,0,0
5.051,3.125,0,0,0,0,0
5.052,3,0,0,0,0,0
5.053,2.5,0,0,0,0,0
5.054,2.5,0,0,0,0,0
5.055,2.5,0,0,0,0,0
5.056,2.9375,0,0,0,0,0
5.057,2.8125,0,0,0,0,0
5.058,3.125,0,0,0,0,0
5.059,3.125,0,0,0,0,0
5.06,2.9375,0,0,0,0,0
5.061,2.8125,0,0,0,0,0
5.062,2.625,0,0,0,0,0
5.063,2.8125,0,0,0,0,0
5.064,2.5,0,0,0,0,0
5.065,2.5,0,0,0,0,0
5.066,2.375,0,0,0,0,0
5.067,2.5,1,0,0,0,0
5.068,2.1875,0,0,0,0,0
5.069,2.1875,0,0,0,0,0
5.07,2.375,0,0,0,0,0
5.071,2.5,0,0,0,0,0
5.072,3,0,0,0,0,0
5.073,3.125,0,0,0,0,0
5.074,3,0,0,0,0,0
5.075,3.125,0,0,0,0,0
5.076,3.125,0,0,0,0,0
5.077,3.125,0,0,0,0,0
5.078,3.875,0,0,0,0,0
5.079,3.75,0,0,0,0,0
5.08,4.375,0,0,0,0,0
5.081,4.6875,0,0,0,0,0
5.082,4.6875,0,0,0,0,0
5.083,5,0,0,0,0,0
5.084,5.75,0,0,0,0,0
5.085,6.5625,0,0,0,0,0
5.086,7.3125,0,0,0,0,0
5.087,8.125,0,0,0,0,0
5.088,8.75,0,0,0,0,0
5.089,9.375,0,0,0,0,0
5.09,10.813,0,0,0,0,0
5.091,12.188,0,0,0,0,0
5.092,14.063,0,0,0,0,0
5.093,15.625,0,0,0,0,0
5.094,16.688,0,0,0,0,0
5.095,17.188,0,0,0,0,0
5.096,17.813,0,0,0,0,0
5.097,18.125,0,0,0,0,0
5.098,17.375,0,0,0,0,0
5.099,16.875,0,0,0,0,0
5.1,17.188,0,0,0,0,0
5.101,17.813,0,0,0,0,0
5.102,17.625,0,0,0,0,0
5.103,18.125,0,0,0,0,0
5.104,18.75,0,0,0,0,0
5.105,19.063,0,0,0,0,0
5.106,19.688,0,0,0,0,0
5.107,20,0,0,0,0,0
5.108,19.813,0,1,0,0,0
5.109,19.375,0,0,0,0,0
5.11,18.438,0,0,0,0,0
5.111,15.938,0,0,0,0,0
5.112,13.438,0,0,0,0,0
5.113,11.563,0,0,0,0,0
5.114,10.75,0,0,0,0,0
5.115,10,0,0,0,0,0
5.116,8.4375,0,0,0,0,0
5.117,6.875,0,0,0,0,0
5.118,5.625,0,0,0,0,0
5.119,5.625,0,0,0,0,0
5.12,6.125,0,0,0,0,0
5.121,7.1875,0,0,0,0,0
5.122,9.5,0,0,0,0,0
5.123,12.188,0,0,0,0,0
5.124,15.125,0,0,0,0,0
5.125,17.5,0,0,0,0,0
5.126,18.438,0,0,0,0,0
5.127,18.125,0,0,0,0,0
5.128,18.125,0,0,0,0,0
5.129,18.125,0,0,0,0,0
5.13,17.813,0,0,0,0,0
5.131,17.813,0,0,0,0,0
5.132,17.813,0,0,0,0,0
5.133,18.125,0,0,0,0,0
5.134,17.625,0,0,0,0,0
5.135,16.563,0,0,0,0,0
5.136,14.25,0,0,0,0,0
5.137,12.5,0,0,0,0,0
5.138,11.563,0,0,0,0,0
5.139,10.938,0,0,0,0,0
5.14,10.625,0,0,0,0,0
5.141,10.313,0,0,0,0,0
5.142,9.375,0,0,0,0,0
5.143,8.4375,0,0,0,0,0
5.144,7.375,0,0,0,0,0
5.145,6.5625,0,0,0,0,0
5.146,7.1875,0,0,0,0,0
5.147,7.8125,0,0,0,0,0
5.148,7.8125,0,0,0,0,0
5.149,7.8125,0,0,0,0,0
5.15,7.1875,0,0,0,0,0
5.151,6.5625,0,0,0,0,0
5.152,5.8125,0,0,0,0,0
5.153,5.625,0,0,0,0,0
5.154,5.9375,0,0,0,0,0
5.155,6.5625,0,0,0,0,0
5.156,6.6875,0,0,0,0,0
5.157,7.5,0,0,0,0,0
5.158,7.1875,0,0,0,0,0
5.159,6.25,0,0,0,0,0
5.16,5.75,0,0,0,0,0
5.161,5.625,0,0,0,0,0
5.162,4.6875,0,0,0,0,0
5.163,3.75,0,0,0,0,0
5.164,2.6875,0,0,0,0,0
5.165,1.875,0,0,0,0,0
5.166,1.25,0,0,0,0,0
5.167,0.3125,0,0,0,0,0
5.168,0.1875,0,0,0,0,0
5.169,0.3125,0,0,0,0,0
5.17,0,0,0,0,0,0
5.171,-0.3125,0,0,0,0,0
5.172,-0.5,0,0,0,0,0
5.173,-0.3125,0,0,0,0,0
5.174,0,0,0,0,0,0
5.175,0.625,0,0,0,0,0
5.176,0.625,0,0,0,0,0
5.177,0.625,0,0,0,0,0
5.178,0.125,0,0,0,0,0
5.179,0.625,0,0,0,0,0
5.18,0.3125,0,0,0,0,0
5.181,0,0,0,0,0,0
5.182,-0.9375,0,0,0,0,0
5.183,-1.5625,0,0,0,0,0
5.184,-1.25,0,0,0,0,0
5.185,-1.25,0,0,0,0,0
5.186,-1.25,0,0,0,0,0
5.187,-1.5625,0,0,0,0,0
5.188,-1.5625,0,0,0,0,0
5.189,-1.5625,0,0,0,0,0
5.19,-1.125,0,0,0,0,0
5.191,-0.9375,0,0,0,0,0
5.192,-0.8125,0,0,0,0,0
5.193,-0.3125,0,0,0,0,0
5.194,-0.4375,0,0,0,0,0
5.195,-0.625,0,0,0,0,0
5.196,0,0,0,0,0,0
5.197,0,0,0,0,0,0
5.198,0.125,0,0,0,0,0
5.199,0.9375,0,0,0,0,0
5.2,0.5,0,0,0,0,0
5.201,0.9375,0,0,0,0,0
5.202,1.6875,0,0,0,0,0
5.203,2.1875,0,0,0,0,0
5.204,2.1875,0,0,0,0,0
5.205,1.875,0,0,0,0,0
5.206,1.75,0,0,0,0,0
5.207,1.5625,0,0,0,0,0
5.208,1.875,0,0,0,0,0
5.209,1.875,0,0,0,0,0
5.21,2.1875,0,0,0,0,0
5.211,2.8125,0,0,0,0,0
5.212,2.3125,0,0,0,0,0
5.213,2.8125,0,0,0,0,0
5.214,2.375,0,0,0,0,0
5.215,2.5,0,0,0,0,0
5.216,2.375,0,0,0,0,0
5.217,2.5,0,0,0,0,0
5.218,2.8125,0,0,0,0,0
5.219,3.4375,0,0,0,0,0
5.22,3.3125,0,0,0,0,0
5.221,3.125,0,0,0,0,0
5.222,3.25,0,0,0,0,0
5.223,3.4375,0,0,1,0,0
5.224,3.3125,0,0,0,0,0
5.225,3.125,0,0,0,0,0
5.226,3.625,0,0,0,0,0
5.227,3.4375,0,0,0,0,0
5.228,3.4375,0,0,0,0,0
5.229,3.4375,0,0,0,0,0
5.23,3.3125,0,0,0,0,0
5.231,3.4375,0,0,0,0,0
5.232,3.5625,0,0,0,0,0
5.233,3.4375,0,0,0,0,0
5.234,4.0625,0,0,0,0,0
5.235,4.375,0,0,0,0,0
5.236,4.375,0,0,0,0,0
5.237,4.375,0,0,0,0,0
5.238,4.375,0,0,0,0,0
5.239,4.0625,0,0,0,0,0
5.24,4.0625,0,0,0,0,0
5.241,3.75,0,0,0,0,0
5.242,3.9375,0,0,0,0,0
5.243,3.4375,0,0,0,0,0
5.244,3.125,0,0,0,0,0
5.245,3.125,0,0,0,0,0
5.246,3.25,0,0,0,0,0
5.247,3.125,0,0,0,0,0
5.248,3.5625,0,0,0,0,0
5.249,3.4375,0,0,0,0,0
5.25,3.5625,0,0,0,0,0
5.251,3.75,0,0,0,0,0
5.252,2.8125,0,0,0,0,0
5.253,3.125,0,0,0,0,0
5.254,3.125,0,0,0,0,0
5.255,3.75,0,0,0,0,0
5.256,3.4375,0,0,0,0,0
5.257,3.75,0,0,0,0,0
5.258,3.625,0,0,0,0,0
5.259,3.4375,0,0,0,0,0
5.26,4.1875,0,0,0,0,0
5.261,4.375,0,0,0,0,0
5.262,4.0625,0,0,0,0,0
5.263,4.0625,0,0,0,0,0
5.264,4.0625,0,0,0,0,0
5.265,3.75,0,0,0,0,0
5.266,4.5,0,0,0,0,0
5.267,4.375,0,0,0,0,0
5.268,4.0625,0,0,0,0,0
5.269,4.0625,0,0,0,0,0
5.27,3.4375,0,0,0,0,0
5.271,3.4375,0,0,0,0,0
5.272,3.625,0,0,0,0,0
5.273,3.4375,0,0,0,0,0
5.274,3.75,0,0,0,0,0
5.275,3.75,0,0,0,0,0
5.276,4.0625,0,0,0,0,0
5.277,4.375,0,0,0,0,0
5.278,3.9375,0,0,0,0,0
5.279,3.4375,0,0,0,0,0
5.28,2.8125,0,0,0,0,0
5.281,2.8125,0,0,0,0,0
5.282,3.4375,0,0,0,0,0
5.283,2.8125,0,0,0,0,0
5.284,3.125,0,0,0,0,0
5.285,3.4375,0,0,0,0,0
5.286,3.4375,0,0,0,0,0
5.287,3.4375,0,0,0,0,0
5.288,3.4375,0,0,0,0,0
5.289,3.75,0,0,0,0,0
5.29,3.625,0,0,0,0,0
5.291,3.4375,0,0,0,0,0
5.292,3.3125,0,0,0,0,0
5.293,3.4375,0,0,0,0,0
5.294,4.0625,0,0,0,0,0
5.295,4.375,0,0,0,0,0
5.296,3.9375,0,0,0,0,0
5.297,2.5,0,0,0,0,0
5.298,2.3125,0,0,0,0,0
5.299,2.5,0,0,0,0,0
5.3,2.625,0,0,0,0,0
5.301,2.8125,0,0,0,0,0
5.302,3.125,0,0,0,0,0
5.303,4.0625,0,0,0,0,0
5.304,4.5,0,0,0,0,0
5.305,4.375,0,0,0,0,0
5.306,4.375,0,0,0,0,0
5.307,4.6875,0,0,0,0,0
5.308,4.6875,0,0,0,0,0
5.309,4.375,0,0,0,0,0
5.31,3.625,0,0,0,0,0
5.311,3.4375,0,0,0,0,0
5.312,3.5625,0,0,0,0,0
5.313,3.4375,0,0,0,0,0
5.314,3.125,0,0,0,0,0
5.315,3.4375,0,0,0,0,0
5.316,2.8125,0,0,0,0,0
5.317,2.1875,0,0,0,0,0
5.318,2.5,0,0,0,0,0
5.319,2.5,0,0,0,0,0
5.32,2.5,0,0,0,0,0
5.321,2.1875,0,0,0,0,0
5.322,2.5,0,0,0,0,0
5.323,2.5,0,0,0,0,0
5.324,2.5,0,0,0,0,0
5.325,2.1875,0,0,0,0,0
5.326,2.375,0,0,0,0,0
5.327,1.875,0,0,0,0,0
5.328,3.25,0,0,0,0,0
5.329,3.75,0,0,0,0,0
5.33,3.4375,0,0,0,0,0
5.331,3.4375,0,0,0,0,0
5.332,4.1875,0,0,0,0,0
5.333,3.75,0,0,0,0,0
5.334,4.1875,0,0,0,0,0
5.335,4.375,0,0,0,0,0
5.336,4.1875,0,0,0,0,0
5.337,4.0625,0,0,0,0,0
5.338,3.9375,0,0,0,0,0
5.339,3.75,0,0,0,0,0
5.34,3.875,0,0,0,0,0
5.341,3.75,0,0,0,0,0
5.342,3.75,0,0,0,0,0
5.343,3.4375,0,0,0,0,0
5.344,3.4375,0,0,0,0,0
5.345,3.4375,0,0,0,0,0
5.346,4.0625,0,0,0,0,0
5.347,3.75,0,0,0,0,0
5.348,3.75,0,0,0,0,0
5.349,3.4375,0,0,0,0,0
5.35,3.125,0,0,0,0,0
5.351,2.8125,0,0,0,0,0
5.352,2.5,0,0,0,0,0
5.353,2.8125,0,0,0,0,0
5.354,2.5,0,0,0,0,0
5.355,2.1875,0,0,0,0,0
5.356,2.1875,0,0,0,0,0
5.357,2.8125,0,0,0,0,0
5.358,2.625,0,0,0,0,0
5.359,3.125,0,0,0,0,0
5.36,2.9375,0,0,0,0,0
5.361,3.125,0,0,0,0,0
5.362,3.125,0,0,0,0,0
5.363,3.125,0,0,0,0,0
5.364,2.1875,0,0,0,0,0
5.365,2.5,0,0,0,0,0
5.366,2.3125,0,0,0,0,0
5.367,2.1875,0,0,0,0,0
5.368,2.6875,0,0,0,0,0
5.369,2.5,0,0,0,0,0
5.37,1.875,0,0,0,0,0
5.371,1.5625,0,0,0,0,0
5.372,2.1875,0,0,0,0,0
5.373,2.5,0,0,0,0,0
5.374,2.375,0,0,0,0,0
5.375,2.1875,0,0,0,0,0
5.376,2.3125,0,0,0,0,0
5.377,2.5,0,0,0,0,0
5.378,2.6875,0,0,0,0,0
5.379,2.8125,0,0,0,0,0
5.38,2.8125,0,0,0,0,0
5.381,3.125,0,0,0,0,0
5.382,2.8125,0,0,0,0,0
5.383,2.5,0,0,0,0,0
5.384,2.5,0,0,0,0,0
5.385,2.5,0,0,0,0,0
5.386,3.4375,0,0,0,0,0
5.387,4.0625,0,0,0,0,0
5.388,3.9375,0,0,0,0,0
5.389,3.75,0,0,0,0,0
5.39,3.3125,0,0,0,0,0
5.391,3.125,0,0,0,0,0
5.392,3.5625,0,0,0,0,0
5.393,3.75,0,0,0,0,0
5.394,3.875,0,0,0,0,0
5.395,4.375,0,0,0,0,0
5.396,4.0625,0,0,0,0,0
5.397,4.0625,0,0,0,0,0
5.398,4.5625,0,0,0,0,0
5.399,4.375,0,0,0,0,0
5.4,4.375,0,0,0,0,0
5.401,3.75,0,0,0,0,0
5.402,3.9375,0,0,0,0,0
5.403,3.75,0,0,0,0,0
5.404,4.8125,0,0,0,0,0
5.405,5.625,0,0,0,0,0
5.406,5.3125,0,0,0,0,0
5.407,5.625,0,0,0,0,0
5.408,5.625,0,0,0,0,0
5.409,5,0,0,0,0,0
5.41,4.5625,0,0,0,0,0
5.411,4.375,0,0,0,0,0
5.412,5.4375,0,0,0,0,0
5.413,5.9375,0,0,0,0,0
5.414,5.75,0,0,0,0,0
5.415,6.5625,0,0,0,0,0
5.416,6.375,0,0,0,0,0
5.417,6.25,0,0,0,0,0
5.418,5.9375,0,0,0,0,0
5.419,5.9375,0,0,0,0,0
5.42,5.8125,0,0,0,0,0
5.421,6.25,0,0,0,0,0
5.422,7.3125,0,0,0,0,0
5.423,7.8125,0,0,0,0,0
5.424,7.5,0,0,0,0,0
5.425,7.5,0,0,0,0,0
5.426,7.375,0,0,0,0,0
5.427,6.5625,0,0,0,0,0
5.428,6.75,0,0,0,0,0
5.429,6.5625,0,0,0,0,0
5.43,6.75,0,0,0,0,0
5.431,6.875,0,0,0,0,0
5.432,7,0,0,0,0,0
5.433,7.8125,0,0,0,0,0
5.434,7.375,0,0,0,0,0
5.435,7.5,0,0,0,0,0
5.436,6.875,0,0,0,0,0
5.437,6.5625,0,0,0,0,0
5.438,7,0,0,0,0,0
5.439,7.5,0,0,0,0,0
5.44,7.375,0,0,0,0,0
5.441,7.1875,0,0,0,0,0
5.442,7.375,0,0,0,1,0
5.443,7.1875,0,0,0,0,0
5.444,7,0,0,0,0,0
5.445,7.5,0,0,0,0,0
5.446,8.125,0,0,0,0,0
5.447,8.125,0,0,0,0,0
5.448,8.3125,0,0,0,0,0
5.449,8.125,0,0,0,0,0
5.45,8.125,0,0,0,0,0
5.451,7.8125,0,0,0,0,0
5.452,7.5,0,0,0,0,0
5.453,7.5,0,0,0,0,0
5.454,7.5,0,0,0,0,0
5.455,8.125,0,0,0,0,0
5.456,7.1875,0,0,0,0,0
5.457,7.1875,0,0,0,0,0
5.458,7.1875,0,0,0,0,0
5.459,6.875,0,0,0,0,0
5.46,7.1875,0,0,0,0,0
5.461,7.5,0,0,0,0,0
5.462,6.875,0,0,0,0,0
5.463,6.875,0,0,0,0,0
5.464,7,0,0,0,0,0
5.465,6.5625,0,0,0,0,0
5.466,6.5625,0,0,0,0,0
5.467,6.875,0,0,0,0,0
5.468,6.5625,0,0,0,0,0
5.469,5.625,0,0,0,0,0
5.47,5.9375,0,0,0,0,0
5.471,5.9375,0,0,0,0,0
5.472,5.75,0,0,0,0,0
