0,-3.9375,0,0,0,0,0
0.001,-3.875,0,0,0,0,0
0.002,-3.75,0,0,0,0,0
0.003,-3.875,0,0,0,0,0
0.004,-4.4375,0,0,0,0,0
0.005,-5.75,0,0,0,0,0
0.006,-5.6875,0,0,0,0,0
0.007,-5.625,0,0,0,0,0
0.008,-5.4375,0,0,0,0,0
0.009,-5.625,0,0,0,0,0
0.01,-5.0625,0,0,0,0,0
0.011,-4.8125,0,0,0,0,0
0.012,-5.125,0,0,0,0,0
0.013,-5.3125,0,0,0,0,0
0.014,-5,0,0,0,0,0
0.015,-5,0,0,0,0,0
0.016,-5.125,0,0,0,0,0
0.017,-5,0,0,0,0,0
0.018,-4.5625,0,0,0,0,0
0.019,-4.1875,0,0,0,0,0
0.02,-4.8125,0,0,0,0,0
0.021,-5.125,0,0,0,0,0
0.022,-5.5,0,0,0,0,0
0.023,-5.625,0,0,0,0,0
0.024,-5.625,0,0,0,0,0
0.025,-5.625,0,0,0,0,0
0.026,-5.125,0,0,0,0,0
0.027,-5,0,0,0,0,0
0.028,-5,0,0,0,0,0
0.029,-4.6875,0,0,0,0,0
0.03,-4.25,0,0,0,0,0
0.031,-4.0625,0,0,0,0,0
0.032,-4.375,0,0,0,0,0
0.033,-4.5,0,0,0,0,0
0.034,-4.5625,0,0,0,0,0
0.035,-4.6875,0,0,0,0,0
0.036,-4.625,0,0,0,0,0
0.037,-4.6875,0,0,0,0,0
0.038,-4.6875,0,0,0,0,0
0.039,-4.8125,0,0,0,0,0
0.04,-5.375,0,0,0,0,0
0.041,-5.9375,0,0,0,0,0
0.042,-6.375,0,0,0,0,0
0.043,-6.375,0,0,0,0,0
0.044,-6.3125,0,0,0,0,0
0.045,-6.0625,0,0,0,0,0
0.046,-5.625,0,0,0,0,0
0.047,-5.4375,0,0,0,0,0
0.048,-5.3125,0,0,0,0,0
0.049,-4.6875,0,0,0,0,0
0.05,-4.5,0,0,0,0,0
0.051,-4.5,0,0,0,0,0
0.052,-4.75,0,0,0,0,0
0.053,-5,0,0,0,0,0
0.054,-4.8125,0,0,0,0,0
0.055,-5.125,0,0,0,0,0
0.056,-5,0,0,0,0,0
0.057,-4.375,0,0,0,0,0
0.058,-4.1875,0,0,0,0,0
0.059,-4.1875,0,0,0,0,0
0.06,-4.3125,0,0,0,0,0
0.061,-4.0625,0,0,0,0,0
0.062,-4,0,0,0,0,0
0.063,-3.75,0,0,0,0,0
0.064,-3.875,0,0,0,0,0
0.065,-4.375,0,0,0,0,0
0.066,-5.1875,0,0,0,0,0
0.067,-6.25,0,0,0,0,0
0.068,-5.75,0,0,0,0,0
0.069,-5.625,0,0,0,0,0
0.07,-5.3125,0,0,0,0,0
0.071,-4.8125,0,0,0,0,0
0.072,-5.25,0,0,0,0,0
0.073,-5.3125,0,0,0,0,0
0.074,-5,0,0,0,0,0
0.075,-4.6875,0,0,0,0,0
0.076,-4.375,0,0,0,0,0
0.077,-3.875,0,0,0,0,0
0.078,-3.875,0,0,0,0,0
0.079,-3.875,0,0,0,0,0
0.08,-3.5625,0,0,0,0,0
0.081,-2.9375,0,0,0,0,0
0.082,-3.5,0,0,0,0,0
0.083,-4.375,0,0,0,0,0
0.084,-4.8125,0,0,0,0,0
0.085,-5.625,0,0,0,0,0
0.086,-5.125,0,0,0,0,0
0.087,-4.6875,0,0,0,0,0
0.088,-4,0,0,0,0,0
0.089,-3.875,0,0,0,0,0
0.09,-3.8125,0,0,0,0,0
0.091,-3.875,0,0,0,0,0
0.092,-4.25,0,0,0,0,0
0.093,-4.8125,0,0,0,0,0
0.094,-5.0625,0,0,0,0,0
0.095,-5.125,0,0,0,0,0
0.096,-4.875,0,0,0,0,0
0.097,-4.6875,0,0,0,0,0
0.098,-4.8125,0,0,0,0,0
0.099,-4.8125,0,0,0,0,0
0.1,-5.4375,0,0,0,0,0
0.101,-5.9375,0,0,0,0,0
0.102,-6.25,0,0,0,0,0
0.103,-6.0625,0,0,0,0,0
0.104,-5.25,0,0,0,0,0
0.105,-4.5,0,0,0,0,0
0.106,-3.375,0,0,0,0,0
0.107,-2.8125,0,0,0,0,0
0.108,-3.8125,0,0,0,0,0
0.109,-4.6875,0,0,0,0,0
0.11,-4.9375,0,0,0,0,0
0.111,-5.3125,0,0,0,0,0
0.112,-5.1875,0,0,0,0,0
0.113,-5.3125,0,0,0,0,0
0.114,-5.3125,0,0,0,0,0
0.115,-5.625,0,0,0,0,0
0.116,-5.625,0,0,0,0,0
0.117,-5.125,0,0,0,0,0
0.118,-5.3125,0,0,0,0,0
0.119,-5.4375,0,0,0,0,0
0.12,-5.125,0,0,0,0,0
0.121,-5.3125,0,0,0,0,0
0.122,-4.6875,0,0,0,0,0
0.123,-4.8125,0,0,0,0,0
0.124,-4.75,0,0,0,0,0
0.125,-5,0,0,0,0,0
0.126,-4.5,0,0,0,0,0
0.127,-4.8125,0,0,0,0,0
0.128,-4.5625,0,0,0,0,0
0.129,-4.8125,0,0,0,0,0
0.13,-4.375,0,0,0,0,0
0.131,-4.0625,0,0,0,0,0
0.132,-4.1875,0,0,0,0,0
0.133,-4.1875,0,0,0,0,0
0.134,-4.125,0,0,0,0,0
0.135,-4.0625,0,0,0,0,0
0.136,-4.125,0,0,0,0,0
0.137,-3.875,0,0,0,0,0
0.138,-3.875,0,0,0,0,0
0.139,-3.875,0,0,0,0,0
0.14,-4.25,0,0,0,0,0
0.141,-4.375,0,0,0,0,0
0.142,-4.375,0,0,0,0,0
0.143,-4.375,0,0,0,0,0
0.144,-4.8125,0,0,0,0,0
0.145,-5,0,0,0,0,0
0.146,-5.3125,0,0,0,0,0
0.147,-5.625,0,0,0,0,0
0.148,-5.75,0,0,0,0,0
0.149,-5.75,0,0,0,0,0
0.15,-5.5625,0,0,0,0,0
0.151,-5.3125,0,0,0,0,0
0.152,-5.6875,0,0,0,0,0
0.153,-6.0625,0,0,0,0,0
0.154,-6.0625,0,0,0,0,0
0.155,-6.375,0,0,0,0,0
0.156,-6.5625,0,0,0,0,0
0.157,-7.1875,0,0,0,0,0
0.158,-6.9375,0,0,0,0,0
0.159,-7.1875,0,0,0,0,0
0.16,-7.3125,0,0,0,0,0
0.161,-7.5,0,0,0,0,0
0.162,-7.375,0,0,0,0,0
0.163,-7.3125,0,0,0,0,0
0.164,-7.8125,0,0,0,0,0
0.165,-8.25,0,0,0,0,0
0.166,-7.6875,0,0,0,0,0
0.167,-7,0,0,0,0,0
0.168,-7.0625,0,0,0,0,0
0.169,-7.8125,0,0,0,0,0
0.17,-7.5,0,0,0,0,0
0.171,-7.8125,0,0,0,0,0
0.172,-7.9375,0,0,0,0,0
0.173,-8.125,0,0,0,0,0
0.174,-8.0625,0,0,0,0,0
0.175,-7.9375,0,0,0,0,0
0.176,-8.5625,0,0,0,0,0
0.177,-8.5625,0,0,0,0,0
0.178,-8.75,0,0,0,0,0
0.179,-8.875,0,0,0,0,0
0.18,-8.75,0,0,0,0,0
0.181,-7.8125,0,0,0,0,0
0.182,-7.5625,0,0,0,0,0
0.183,-7.625,0,0,0,0,0
0.184,-7.4375,0,0,0,0,0
0.185,-7,0,0,0,0,0
0.186,-7.75,0,0,0,0,0
0.187,-7.625,0,0,0,0,0
0.188,-8.25,0,0,0,0,0
0.189,-9.0625,0,0,0,0,0
0.19,-8.8125,0,0,0,0,0
0.191,-8.75,0,0,0,0,0
0.192,-8.5,0,0,0,0,0
0.193,-8.75,0,0,0,0,0
0.194,-9.1875,0,0,0,0,0
0.195,-9.375,0,0,0,0,0
0.196,-9.125,0,0,0,0,0
0.197,-8.4375,0,0,0,0,0
0.198,-8.5,0,0,0,0,0
0.199,-8.125,0,0,0,0,0
0.2,-8.375,0,0,0,0,0
0.201,-8.25,0,0,0,0,0
0.202,-8.1875,0,0,0,0,0
0.203,-8.75,0,0,0,0,0
0.204,-9,0,0,0,0,0
0.205,-9.5,0,0,0,0,0
0.206,-8.375,0,0,0,0,0
0.207,-7.8125,0,0,0,0,0
0.208,-8.5625,0,0,0,0,0
0.209,-9.1875,0,0,0,0,0
0.21,-9.0625,0,0,0,0,0
0.211,-9.1875,0,0,0,0,0
0.212,-8.3125,0,0,0,0,0
0.213,-7.625,0,0,0,0,0
0.214,-7.625,0,0,0,0,0
0.215,-7.5,0,0,0,0,0
0.216,-7.875,0,0,0,0,0
0.217,-7.5,0,0,0,0,0
0.218,-7.125,0,0,0,0,0
0.219,-7,0,0,0,0,0
0.22,-7.4375,0,0,0,0,0
0.221,-7.8125,0,0,0,0,0
0.222,-7.5,0,0,0,0,0
0.223,-7.5,0,0,0,0,0
0.224,-6.9375,0,0,0,0,0
0.225,-6.875,0,0,0,0,0
0.226,-5.9375,0,0,0,0,0
0.227,-5.4375,0,0,0,0,0
0.228,-5.5625,0,0,0,0,0
0.229,-6.0625,0,0,0,0,0
0.23,-5.9375,0,0,0,0,0
0.231,-5.4375,0,0,0,0,0
0.232,-5.4375,0,0,0,0,0
0.233,-5.4375,0,0,0,0,0
0.234,-4.4375,0,0,0,0,0
0.235,-3.25,0,0,0,0,0
0.236,-3.1875,0,0,0,0,0
0.237,-2.8125,0,0,0,0,0
0.238,-3.25,0,0,0,0,0
0.239,-3.875,0,0,0,0,0
0.24,-4.375,0,0,0,0,0
0.241,-4.5,0,0,0,0,0
0.242,-4.6875,0,0,0,0,0
0.243,-4.6875,0,0,0,0,0
0.244,-4.25,0,0,0,0,0
0.245,-4.0625,0,0,0,0,0
0.246,-3.9375,0,0,0,0,0
0.247,-3.5625,0,0,0,0,0
0.248,-3.5,0,0,0,0,0
0.249,-3.875,0,0,0,0,0
0.25,-3.1875,0,0,0,0,0
0.251,-2.9375,0,0,0,0,0
0.252,-2.8125,0,0,0,0,0
0.253,-3.125,0,0,0,0,0
0.254,-3.25,0,0,0,0,0
0.255,-2.9375,0,0,0,0,0
0.256,-3.8125,0,0,0,0,0
0.257,-4.1875,0,0,0,0,0
0.258,-4.3125,0,0,0,0,0
0.259,-3.5625,0,0,0,0,0
0.26,-3.4375,0,0,0,0,0
0.261,-3.25,0,0,0,0,0
0.262,-3.3125,0,0,0,0,0
0.263,-3.125,0,0,0,0,0
0.264,-2.625,0,0,0,0,0
0.265,-2.8125,0,0,0,0,0
0.266,-2.875,0,0,0,0,0
0.267,-3.125,0,0,0,0,0
0.268,-2.6875,0,0,0,0,0
0.269,-2.5,0,0,0,0,0
0.27,-2.3125,0,0,0,0,0
0.271,-2.1875,0,0,0,0,0
0.272,-2.625,0,0,0,0,0
0.273,-2.9375,0,0,0,0,0
0.274,-2.9375,0,0,0,0,0
0.275,-2.9375,0,0,0,0,0
0.276,-3.1875,0,0,0,0,0
0.277,-2.9375,0,0,0,0,0
0.278,-3.0625,0,0,0,0,0
0.279,-2.625,0,0,0,0,0
0.28,-3,0,0,0,0,0
0.281,-3.25,0,0,0,0,0
0.282,-3.25,0,0,0,0,0
0.283,-3.125,0,0,0,0,0
0.284,-3.125,0,0,0,0,0
0.285,-2.9375,0,0,0,0,0
0.286,-2.3125,0,0,0,0,0
0.287,-2.1875,0,0,0,0,0
0.288,-2.0625,0,0,0,0,0
0.289,-2.5,0,0,0,0,0
0.29,-2.5625,0,0,0,0,0
0.291,-2.625,0,0,0,0,0
0.292,-2.5,0,0,0,0,0
0.293,-2.625,0,0,0,0,0
0.294,-2.75,0,0,0,0,0
0.295,-2.5,0,0,0,0,0
0.296,-3.125,0,0,0,0,0
0.297,-3.4375,0,0,0,0,0
0.298,-3.1875,0,0,0,0,0
0.299,-3.5625,0,0,0,0,0
0.3,-3.875,0,0,0,0,0
0.301,-3.75,0,0,0,0,0
0.302,-3.8125,0,0,0,0,0
0.303,-3.5625,0,0,0,0,0
0.304,-3.5625,0,0,0,0,0
0.305,-3.5625,0,0,0,0,0
0.306,-2.875,0,0,0,0,0
0.307,-2.9375,0,0,0,0,0
0.308,-2.625,0,0,0,0,0
0.309,-2.9375,0,0,0,0,0
0.31,-2.4375,0,0,0,0,0
0.311,-2.1875,0,0,0,0,0
0.312,-2.1875,0,0,0,0,0
0.313,-2.5,0,0,0,0,0
0.314,-2.6875,0,0,0,0,0
0.315,-2.3125,0,0,0,0,0
0.316,-3.375,0,0,0,0,0
0.317,-3.75,0,0,0,0,0
0.318,-3.9375,0,0,0,0,0
0.319,-3.4375,0,0,0,0,0
0.32,-3.25,0,0,0,0,0
0.321,-3.4375,0,0,0,0,0
0.322,-3,0,0,0,0,0
0.323,-3.25,0,0,0,0,0
0.324,-2.6875,0,0,0,0,0
0.325,-2.1875,0,0,0,0,0
0.326,-1.4375,0,0,0,0,0
0.327,-1.0625,1,0,0,0,0
0.328,-0.875,0,0,0,0,0
0.329,-1.0625,0,0,0,0,0
0.33,-1.3125,0,0,0,0,0
0.331,-1.6875,0,0,0,0,0
0.332,-1.5,0,0,0,0,0
0.333,-1.25,0,0,0,0,0
0.334,-1.9375,0,0,0,0,0
0.335,-2.1875,0,0,0,0,0
0.336,-3.4375,0,0,0,0,0
0.337,-4.5,0,0,0,0,0
0.338,-5.5,0,0,0,0,0
0.339,-6.375,0,0,0,0,0
0.34,-7.125,0,0,0,0,0
0.341,-7.1875,0,0,0,0,0
0.342,-7.125,0,0,0,0,0
0.343,-7.1875,0,0,0,0,0
0.344,-7.8125,0,0,0,0,0
0.345,-8.75,0,0,0,0,0
0.346,-9.4375,0,0,0,0,0
0.347,-10.313,0,0,0,0,0
0.348,-11.75,0,0,0,0,0
0.349,-13.563,0,0,0,0,0
0.35,-15,0,0,0,0,0
0.351,-16.563,0,0,0,0,0
0.352,-18.563,0,0,0,0,0
0.353,-20.438,0,0,0,0,0
0.354,-22,0,0,0,0,0
0.355,-23.125,0,0,0,0,0
0.356,-25,0,0,0,0,0
0.357,-26.563,0,0,0,0,0
0.358,-28.625,0,0,0,0,0
0.359,-30.625,0,0,0,0,0
0.36,-31.875,0,0,0,0,0
0.361,-32.813,0,0,0,0,0
0.362,-33.688,0,0,0,0,0
0.363,-34.813,0,0,0,0,0
0.364,-35.188,0,0,0,0,0
0.365,-35.313,0,0,0,0,0
0.366,-34.75,0,0,0,0,0
0.367,-33.875,0,0,0,0,0
0.368,-33.125,0,0,0,0,0
0.369,-31.875,0,1,0,0,0
0.37,-30.188,0,0,0,0,0
0.371,-28.75,0,0,0,0,0
0.372,-27.125,0,0,0,0,0
0.373,-24.063,0,0,0,0,0
0.374,-19.438,0,0,0,0,0
0.375,-15.625,0,0,0,0,0
0.376,-11.625,0,0,0,0,0
0.377,-7.9375,0,0,0,0,0
0.378,-5.625,0,0,0,0,0
0.379,-2.9375,0,0,0,0,0
0.38,-1.0625,0,0,0,0,0
0.381,-0.4375,0,0,0,0,0
0.382,1.3125,0,0,0,0,0
0.383,2.0625,0,0,0,0,0
0.384,2.25,0,0,0,0,0
0.385,2.1875,0,0,0,0,0
0.386,2.5625,0,0,0,0,0
0.387,3.3125,0,0,0,0,0
0.388,3.9375,0,0,0,0,0
0.389,4.6875,0,0,0,0,0
0.39,4.5625,0,0,0,0,0
0.391,4.6875,0,0,0,0,0
0.392,5.375,0,0,0,0,0
0.393,5.8125,0,0,0,0,0
0.394,5.875,0,0,0,0,0
0.395,5.5,0,0,0,0,0
0.396,5.3125,0,0,0,0,0
0.397,4.875,0,0,0,0,0
0.398,4.375,0,0,0,0,0
0.399,3.625,0,0,0,0,0
0.4,4.0625,0,0,0,0,0
0.401,4.375,0,0,0,0,0
0.402,4.375,0,0,0,0,0
0.403,4.6875,0,0,0,0,0
0.404,4.5,0,0,0,0,0
0.405,4.25,0,0,0,0,0
0.406,4.6875,0,0,0,0,0
0.407,5,0,0,0,0,0
0.408,4.5625,0,0,0,0,0
0.409,4.0625,0,0,0,0,0
0.41,4.125,0,0,0,0,0
0.411,4.0625,0,0,0,0,0
0.412,3.6875,0,0,0,0,0
0.413,3.625,0,0,0,0,0
0.414,4.25,0,0,0,0,0
0.415,4.0625,0,0,0,0,0
0.416,3.4375,0,0,0,0,0
0.417,2.6875,0,0,0,0,0
0.418,3.0625,0,0,0,0,0
0.419,3.125,0,0,0,0,0
0.42,3.6875,0,0,0,0,0
0.421,4.375,0,0,0,0,0
0.422,3.8125,0,0,0,0,0
0.423,2.6875,0,0,0,0,0
0.424,2.8125,0,0,0,0,0
0.425,2.8125,0,0,0,0,0
0.426,3.4375,0,0,0,0,0
0.427,3.9375,0,0,0,0,0
0.428,4.25,0,0,0,0,0
0.429,4.375,0,0,0,0,0
0.43,4.625,0,0,0,0,0
0.431,5,0,0,0,0,0
0.432,4.75,0,0,0,0,0
0.433,5,0,0,0,0,0
0.434,5.5625,0,0,0,0,0
0.435,5.5,0,0,0,0,0
0.436,5.5625,0,0,0,0,0
0.437,5,0,0,0,0,0
0.438,5.5625,0,0,0,0,0
0.439,6.125,0,0,0,0,0
0.44,6.3125,0,0,0,0,0
0.441,5.9375,0,0,0,0,0
0.442,5.5625,0,0,0,0,0
0.443,5.5,0,0,0,0,0
0.444,5.4375,0,0,0,0,0
0.445,5.3125,0,0,0,0,0
0.446,5.3125,0,0,0,0,0
0.447,5.1875,0,0,0,0,0
0.448,5.5625,0,0,0,0,0
0.449,6.25,0,0,0,0,0
0.45,6.625,0,0,0,0,0
0.451,7.0625,0,0,0,0,0
0.452,6.3125,0,0,0,0,0
0.453,5.625,0,0,0,0,0
0.454,5.5625,0,0,0,0,0
0.455,5.3125,0,0,0,0,0
0.456,5.25,0,0,0,0,0
0.457,5,0,0,0,0,0
0.458,4.625,0,0,0,0,0
0.459,4.25,0,0,0,0,0
0.46,4.4375,0,0,0,0,0
0.461,4.0625,0,0,0,0,0
0.462,3.625,0,0,0,0,0
0.463,2.5,0,0,0,0,0
0.464,1.875,0,0,0,0,0
0.465,1.75,0,0,0,0,0
0.466,1.625,0,0,0,0,0
0.467,1.875,0,0,0,0,0
0.468,1.5625,0,0,0,0,0
0.469,1.4375,0,0,0,0,0
0.47,1,0,0,0,0,0
0.471,0.9375,0,0,0,0,0
0.472,0.5,0,0,0,0,0
0.473,0,0,0,0,0,0
0.474,0.1875,0,0,0,0,0
0.475,-0.625,0,0,0,0,0
0.476,-0.5625,0,0,0,0,0
0.477,-0.625,0,0,0,0,0
0.478,0,0,0,0,0,0
0.479,0.3125,0,0,0,0,0
0.48,-0.125,0,0,0,0,0
0.481,-0.75,0,0,0,0,0
0.482,-1,0,0,0,0,0
0.483,-1.25,0,0,0,0,0
0.484,-1.25,0,0,0,0,0
0.485,-0.9375,0,0,0,0,0
0.486,-1.75,0,0,0,0,0
0.487,-2.5,0,0,0,0,0
0.488,-3.0625,0,0,0,0,0
0.489,-2.9375,0,0,0,0,0
0.49,-2.8125,0,0,0,0,0
0.491,-2.8125,0,0,0,0,0
0.492,-2.9375,0,0,0,0,0
0.493,-3.75,0,0,0,0,0
0.494,-4.125,0,0,0,0,0
0.495,-4.5,0,0,0,0,0
0.496,-4.4375,0,0,0,0,0
0.497,-4.375,0,0,0,0,0
0.498,-4.0625,0,0,0,0,0
0.499,-3.75,0,0,0,0,0
0.5,-4.375,0,0,0,0,0
0.501,-4.5,0,0,0,0,0
0.502,-4.125,0,0,1,0,0
0.503,-4.0625,0,0,0,0,0
0.504,-4.5,0,0,0,0,0
0.505,-4.0625,0,0,0,0,0
0.506,-3.75,0,0,0,0,0
0.507,-3.75,0,0,0,0,0
0.508,-4.0625,0,0,0,0,0
0.509,-3.875,0,0,0,0,0
0.51,-3.875,0,0,0,0,0
0.511,-3.75,0,0,0,0,0
0.512,-4.75,0,0,0,0,0
0.513,-5.4375,0,0,0,0,0
0.514,-4.75,0,0,0,0,0
0.515,-5,0,0,0,0,0
0.516,-4.375,0,0,0,0,0
0.517,-4.6875,0,0,0,0,0
0.518,-4.125,0,0,0,0,0
0.519,-4.375,0,0,0,0,0
0.52,-4.5,0,0,0,0,0
0.521,-4.5,0,0,0,0,0
0.522,-4.25,0,0,0,0,0
0.523,-3.875,0,0,0,0,0
0.524,-3.75,0,0,0,0,0
0.525,-4.0625,0,0,0,0,0
0.526,-3.6875,0,0,0,0,0
0.527,-3.25,0,0,0,0,0
0.528,-5.1875,0,0,0,0,0
0.529,-6.5625,0,0,0,0,0
0.53,-6.1875,0,0,0,0,0
0.531,-5.9375,0,0,0,0,0
0.532,-5.75,0,0,0,0,0
0.533,-5.625,0,0,0,0,0
0.534,-5.375,0,0,0,0,0
0.535,-5.125,0,0,0,0,0
0.536,-5.375,0,0,0,0,0
0.537,-5.3125,0,0,0,0,0
0.538,-5.0625,0,0,0,0,0
0.539,-4.8125,0,0,0,0,0
0.54,-4.9375,0,0,0,0,0
0.541,-5,0,0,0,0,0
0.542,-5.125,0,0,0,0,0
0.543,-5.4375,0,0,0,0,0
0.544,-5.625,0,0,0,0,0
0.545,-5.4375,0,0,0,0,0
0.546,-4.9375,0,0,0,0,0
0.547,-4.375,0,0,0,0,0
0.548,-4.125,0,0,0,0,0
0.549,-3.875,0,0,0,0,0
0.55,-4.375,0,0,0,0,0
0.551,-4.6875,0,0,0,0,0
0.552,-4.6875,0,0,0,0,0
0.553,-4.375,0,0,0,0,0
0.554,-4.4375,0,0,0,0,0
0.555,-4.6875,0,0,0,0,0
0.556,-5.0625,0,0,0,0,0
0.557,-5.625,0,0,0,0,0
0.558,-6.4375,0,0,0,0,0
0.559,-6.5625,0,0,0,0,0
0.56,-6.1875,0,0,0,0,0
0.561,-6.25,0,0,0,0,0
0.562,-6,0,0,0,0,0
0.563,-5.625,0,0,0,0,0
0.564,-5.25,0,0,0,0,0
0.565,-5.3125,0,0,0,0,0
0.566,-6,0,0,0,0,0
0.567,-5.9375,0,0,0,0,0
0.568,-5.8125,0,0,0,0,0
0.569,-5.75,0,0,0,0,0
0.57,-5.5,0,0,0,0,0
0.571,-5.125,0,0,0,0,0
0.572,-4.6875,0,0,0,0,0
0.573,-4.6875,0,0,0,0,0
0.574,-4.5625,0,0,0,0,0
0.575,-4.5,0,0,0,0,0
0.576,-4.0625,0,0,0,0,0
0.577,-4.375,0,0,0,0,0
0.578,-4.625,0,0,0,0,0
0.579,-4.6875,0,0,0,0,0
0.58,-4.75,0,0,0,0,0
0.581,-4.8125,0,0,0,0,0
0.582,-4.25,0,0,0,0,0
0.583,-3.875,0,0,0,0,0
0.584,-3.875,0,0,0,0,0
0.585,-3.875,0,0,0,0,0
0.586,-4.25,0,0,0,0,0
0.587,-4.375,0,0,0,0,0
0.588,-5.0625,0,0,0,0,0
0.589,-5.9375,0,0,0,0,0
0.59,-5.5625,0,0,0,0,0
0.591,-4.5,0,0,0,0,0
0.592,-4.375,0,0,0,0,0
0.593,-4.5,0,0,0,0,0
0.594,-5.1875,0,0,0,0,0
0.595,-4.8125,0,0,0,0,0
0.596,-5.375,0,0,0,0,0
0.597,-5.75,0,0,0,0,0
0.598,-5.25,0,0,0,0,0
0.599,-4.6875,0,0,0,0,0
0.6,-5.0625,0,0,0,0,0
0.601,-5.3125,0,0,0,0,0
0.602,-5.4375,0,0,0,0,0
0.603,-5.3125,0,0,0,0,0
0.604,-6.0625,0,0,0,0,0
0.605,-6.375,0,0,0,0,0
0.606,-6.4375,0,0,0,0,0
0.607,-6.25,0,0,0,0,0
0.608,-6.8125,0,0,0,0,0
0.609,-6.5625,0,0,0,0,0
0.61,-6.6875,0,0,0,0,0
0.611,-6.375,0,0,0,0,0
0.612,-5.8125,0,0,0,0,0
0.613,-5.4375,0,0,0,0,0
0.614,-5.0625,0,0,0,0,0
0.615,-5.3125,0,0,0,0,0
0.616,-5.5,0,0,0,0,0
0.617,-5.625,0,0,0,0,0
0.618,-5,0,0,0,0,0
0.619,-4.375,0,0,0,0,0
0.62,-4.4375,0,0,0,0,0
0.621,-4.5,0,0,0,0,0
0.622,-4.5,0,0,0,0,0
0.623,-4.5,0,0,0,0,0
0.624,-5.1875,0,0,0,0,0
0.625,-5.75,0,0,0,0,0
0.626,-5.6875,0,0,0,0,0
0.627,-6.0625,0,0,0,0,0
0.628,-6.375,0,0,0,0,0
0.629,-6.6875,0,0,0,0,0
0.63,-6.625,0,0,0,0,0
0.631,-6.25,0,0,0,0,0
0.632,-6,0,0,0,0,0
0.633,-6.0625,0,0,0,0,0
0.634,-6.375,0,0,0,0,0
0.635,-6.25,0,0,0,0,0
0.636,-6.1875,0,0,0,0,0
0.637,-6.0625,0,0,0,0,0
0.638,-6,0,0,0,0,0
0.639,-6.0625,0,0,0,0,0
0.64,-6.5625,0,0,0,0,0
0.641,-6.875,0,0,0,0,0
0.642,-7.1875,0,0,0,0,0
0.643,-7.625,0,0,0,0,0
0.644,-8.1875,0,0,0,0,0
0.645,-8.5625,0,0,0,0,0
0.646,-7.75,0,0,0,0,0
0.647,-6.6875,0,0,0,0,0
0.648,-6.6875,0,0,0,0,0
0.649,-6.5625,0,0,0,0,0
0.65,-7.0625,0,0,0,0,0
0.651,-7.1875,0,0,0,0,0
0.652,-6.625,0,0,0,0,0
0.653,-6.6875,0,0,0,0,0
0.654,-6.5625,0,0,0,0,0
0.655,-6.375,0,0,0,0,0
0.656,-6.5,0,0,0,0,0
0.657,-7,0,0,0,0,0
0.658,-7.25,0,0,0,0,0
0.659,-7.625,0,0,0,0,0
0.66,-7.9375,0,0,0,0,0
0.661,-7.9375,0,0,0,0,0
0.662,-8.125,0,0,0,0,0
0.663,-7.8125,0,0,0,0,0
0.664,-8,0,0,0,0,0
0.665,-8.125,0,0,0,0,0
0.666,-8.4375,0,0,0,0,0
0.667,-8.5625,0,0,0,0,0
0.668,-8.0625,0,0,0,0,0
0.669,-7.8125,0,0,0,0,0
0.67,-8.0625,0,0,0,0,0
0.671,-8.25,0,0,0,0,0
0.672,-8.625,0,0,0,0,0
0.673,-8.875,0,0,0,0,0
0.674,-8.8125,0,0,0,0,0
0.675,-8.875,0,0,0,0,0
0.676,-8.8125,0,0,0,0,0
0.677,-9.8125,0,0,0,0,0
0.678,-9.125,0,0,0,0,0
0.679,-8.4375,0,0,0,0,0
0.68,-8.75,0,0,0,0,0
0.681,-9.5,0,0,0,0,0
0.682,-9.875,0,0,0,0,0
0.683,-10.625,0,0,0,0,0
0.684,-10.375,0,0,0,0,0
0.685,-9.375,0,0,0,0,0
0.686,-9.0625,0,0,0,0,0
0.687,-8.875,0,0,0,0,0
0.688,-8.75,0,0,0,0,0
0.689,-8.4375,0,0,0,0,0
0.69,-9.4375,0,0,0,0,0
0.691,-10.125,0,0,0,0,0
0.692,-10.5,0,0,0,0,0
0.693,-11.063,0,0,0,0,0
0.694,-10.625,0,0,0,0,0
0.695,-10.313,0,0,0,0,0
0.696,-10,0,0,0,0,0
0.697,-10,0,0,0,1,0
0.698,-9.8125,0,0,0,0,0
0.699,-9.6875,0,0,0,0,0
0.7,-9.8125,0,0,0,0,0
0.701,-9.5,0,0,0,0,0
0.702,-9.4375,0,0,0,0,0
0.703,-9.0625,0,0,0,0,0
0.704,-8.875,0,0,0,0,0
0.705,-8.5625,0,0,0,0,0
0.706,-8.4375,0,0,0,0,0
0.707,-8.5625,0,0,0,0,0
0.708,-9.25,0,0,0,0,0
0.709,-9.1875,0,0,0,0,0
0.71,-9.1875,0,0,0,0,0
0.711,-8.875,0,0,0,0,0
0.712,-8.5,0,0,0,0,0
0.713,-7.8125,0,0,0,0,0
0.714,-8.1875,0,0,0,0,0
0.715,-8.4375,0,0,0,0,0
0.716,-8.5625,0,0,0,0,0
0.717,-9.0625,0,0,0,0,0
0.718,-9.0625,0,0,0,0,0
0.719,-9.375,0,0,0,0,0
0.72,-9,0,0,0,0,0
0.721,-8.5625,0,0,0,0,0
0.722,-8.375,0,0,0,0,0
0.723,-7.9375,0,0,0,0,0
0.724,-7.75,0,0,0,0,0
0.725,-7.8125,0,0,0,0,0
0.726,-7.875,0,0,0,0,0
0.727,-7.8125,0,0,0,0,0
0.728,-8,0,0,0,0,0
0.729,-8.4375,0,0,0,0,0
0.73,-8.1875,0,0,0,0,0
0.731,-8.125,0,0,0,0,0
0.732,-7.6875,0,0,0,0,0
0.733,-7.1875,0,0,0,0,0
0.734,-6.75,0,0,0,0,0
0.735,-6.375,0,0,0,0,0
0.736,-6.625,0,0,0,0,0
0.737,-6.25,0,0,0,0,0
0.738,-6,0,0,0,0,0
0.739,-6.0625,0,0,0,0,0
0.74,-6.25,0,0,0,0,0
0.741,-6.0625,0,0,0,0,0
0.742,-6,0,0,0,0,0
0.743,-5.75,0,0,0,0,0
0.744,-5.8125,0,0,0,0,0
0.745,-5.625,0,0,0,0,0
0.746,-5.625,0,0,0,0,0
0.747,-5.125,0,0,0,0,0
0.748,-5.125,0,0,0,0,0
0.749,-5.125,0,0,0,0,0
0.75,-5.8125,0,0,0,0,0
0.751,-5.9375,0,0,0,0,0
0.752,-5.4375,0,0,0,0,0
0.753,-5.4375,0,0,0,0,0
0.754,-5.375,0,0,0,0,0
0.755,-5.4375,0,0,0,0,0
0.756,-5.4375,0,0,0,0,0
0.757,-5.625,0,0,0,0,0
0.758,-5.6875,0,0,0,0,0
0.759,-5.9375,0,0,0,0,0
0.76,-6.3125,0,0,0,0,0
0.761,-5.9375,0,0,0,0,0
0.762,-5.75,0,0,0,0,0
0.763,-5.625,0,0,0,0,0
0.764,-5.0625,0,0,0,0,0
0.765,-4.8125,0,0,0,0,0
0.766,-4.3125,0,0,0,0,0
0.767,-3.875,0,0,0,0,0
0.768,-4.375,0,0,0,0,0
0.769,-4.1875,0,0,0,0,0
0.77,-4.5,0,0,0,0,0
0.771,-4.6875,0,0,0,0,0
0.772,-4.625,0,0,0,0,0
0.773,-4.375,0,0,0,0,0
0.774,-4.1875,0,0,0,0,0
0.775,-3.875,0,0,0,0,0
0.776,-3.75,0,0,0,0,1
0.777,-3.75,0,0,0,0,0
0.778,-3.25,0,0,0,0,0
0.779,-2.9375,0,0,0,0,0
0.78,-2.8125,0,0,0,0,0
0.781,-3.125,0,0,0,0,0
0.782,-3.5625,0,0,0,0,0
0.783,-3.75,0,0,0,0,0
0.784,-4.125,0,0,0,0,0
0.785,-4.5,0,0,0,0,0
0.786,-4.8125,0,0,0,0,0
0.787,-4.6875,0,0,0,0,0
0.788,-4.8125,0,0,0,0,0
0.789,-4.5,0,0,0,0,0
0.79,-4.3125,0,0,0,0,0
0.791,-3.875,0,0,0,0,0
0.792,-3.8125,0,0,0,0,0
0.793,-4.0625,0,0,0,0,0
0.794,-3.625,0,0,0,0,0
0.795,-3.75,0,0,0,0,0
0.796,-4,0,0,0,0,0
0.797,-3.875,0,0,0,0,0
0.798,-3.75,0,0,0,0,0
0.799,-3.25,0,0,0,0,0
0.8,-3.5,0,0,0,0,0
0.801,-3.25,0,0,0,0,0
0.802,-3.125,0,0,0,0,0
0.803,-2.8125,0,0,0,0,0
0.804,-3.9375,0,0,0,0,0
0.805,-4.375,0,0,0,0,0
0.806,-4.875,0,0,0,0,0
0.807,-5.9375,0,0,0,0,0
0.808,-6,0,0,0,0,0
0.809,-6.375,0,0,0,0,0
0.81,-6,0,0,0,0,0
0.811,-5,0,0,0,0,0
0.812,-4.4375,0,0,0,0,0
0.813,-4.6875,0,0,0,0,0
0.814,-5.125,0,0,0,0,0
0.815,-5.3125,0,0,0,0,0
0.816,-4.8125,0,0,0,0,0
0.817,-5.125,0,0,0,0,0
0.818,-5,0,0,0,0,0
0.819,-5.125,0,0,0,0,0
0.82,-5.25,0,0,0,0,0
0.821,-5,0,0,0,0,0
0.822,-5.1875,0,0,0,0,0
0.823,-5.4375,0,0,0,0,0
0.824,-5.625,0,0,0,0,0
0.825,-5.4375,0,0,0,0,0
0.826,-5.0625,0,0,0,0,0
0.827,-4.8125,0,0,0,0,0
0.828,-4.875,0,0,0,0,0
0.829,-4.6875,0,0,0,0,0
0.83,-4.3125,0,0,0,0,0
0.831,-4.0625,0,0,0,0,0
0.832,-3.875,0,0,0,0,0
0.833,-4.1875,0,0,0,0,0
0.834,-4.375,0,0,0,0,0
0.835,-4.375,0,0,0,0,0
0.836,-4.625,0,0,0,0,0
0.837,-4.8125,0,0,0,0,0
0.838,-4.6875,0,0,0,0,0
0.839,-4.8125,0,0,0,0,0
0.84,-5.5625,0,0,0,0,0
0.841,-6.0625,0,0,0,0,0
0.842,-6.3125,0,0,0,0,0
0.843,-6.25,0,0,0,0,0
0.844,-6.125,0,0,0,0,0
0.845,-6.25,0,0,0,0,0
0.846,-5.9375,0,0,0,0,0
0.847,-6.25,0,0,0,0,0
0.848,-5.9375,0,0,0,0,0
0.849,-5.4375,0,0,0,0,0
0.85,-4.875,0,0,0,0,0
0.851,-4.1875,0,0,0,0,0
0.852,-4.375,0,0,0,0,0
0.853,-4.8125,0,0,0,0,0
0.854,-5.3125,0,0,0,0,0
0.855,-5.4375,0,0,0,0,0
0.856,-5.5625,0,0,0,0,0
0.857,-5.625,0,0,0,0,0
0.858,-5.5625,0,0,0,0,0
0.859,-5.75,0,0,0,0,0
0.86,-5.3125,0,0,0,0,0
0.861,-5.125,0,0,0,0,0
0.862,-5.375,0,0,0,0,0
0.863,-5.625,0,0,0,0,0
0.864,-5.375,0,0,0,0,0
0.865,-4.8125,0,0,0,0,0
0.866,-5,0,0,0,0,0
0.867,-4.8125,0,0,0,0,0
0.868,-4.875,0,0,0,0,0
0.869,-4.1875,0,0,0,0,0
0.87,-4.25,0,0,0,0,0
0.871,-4.1875,0,0,0,0,0
0.872,-3.4375,0,0,0,0,0
0.873,-3.125,0,0,0,0,0
0.874,-3.4375,0,0,0,0,0
0.875,-3.75,0,0,0,0,0
0.876,-4.125,0,0,0,0,0
0.877,-4.1875,0,0,0,0,0
0.878,-4.4375,0,0,0,0,0
0.879,-4.8125,0,0,0,0,0
0.88,-4.8125,0,0,0,0,0
0.881,-4.6875,0,0,0,0,0
0.882,-4.1875,0,0,0,0,0
0.883,-3.875,0,0,0,0,0
0.884,-4,0,0,0,0,0
0.885,-4.6875,0,0,0,0,0
0.886,-4.9375,0,0,0,0,0
0.887,-5.3125,0,0,0,0,0
0.888,-5.625,0,0,0,0,0
0.889,-6.0625,0,0,0,0,0
0.89,-6.5625,0,0,0,0,0
0.891,-6.375,0,0,0,0,0
0.892,-5.9375,0,0,0,0,0
0.893,-5.9375,0,0,0,0,0
0.894,-5.6875,0,0,0,0,0
0.895,-5.625,0,0,0,0,0
0.896,-5.4375,0,0,0,0,0
0.897,-5.625,0,0,0,0,0
0.898,-5.5,0,0,0,0,0
0.899,-5.625,0,0,0,0,0
0.9,-5.875,0,0,0,0,0
0.901,-5.125,0,0,0,0,0
0.902,-4.6875,0,0,0,0,0
0.903,-4.5,0,0,0,0,0
0.904,-4.0625,0,0,0,0,0
0.905,-3.75,0,0,0,0,0
0.906,-4.375,0,0,0,0,0
0.907,-4.8125,0,0,0,0,0
0.908,-5.0625,0,0,0,0,0
0.909,-5,0,0,0,0,0
0.91,-4.0625,0,0,0,0,0
0.911,-3.75,0,0,0,0,0
0.912,-4.8125,0,0,0,0,0
0.913,-5.4375,0,0,0,0,0
0.914,-5.25,0,0,0,0,0
0.915,-4.5,0,0,0,0,0
0.916,-5.125,0,0,0,0,0
0.917,-4.6875,0,0,0,0,0
0.918,-4.625,0,0,0,0,0
0.919,-3.875,0,0,0,0,0
0.92,-3.75,0,0,0,0,0
0.921,-4.1875,0,0,0,0,0
0.922,-4.4375,0,0,0,0,0
0.923,-4.6875,0,0,0,0,0
0.924,-4.875,0,0,0,0,0
0.925,-5.125,0,0,0,0,0
0.926,-4.4375,0,0,0,0,0
0.927,-4.1875,0,0,0,0,0
0.928,-4.3125,0,0,0,0,0
0.929,-4.6875,0,0,0,0,0
0.93,-5.125,0,0,0,0,0
0.931,-5.4375,0,0,0,0,0
0.932,-5.5625,0,0,0,0,0
0.933,-5.625,0,0,0,0,0
0.934,-5.3125,0,0,0,0,0
0.935,-5.3125,0,0,0,0,0
0.936,-5.4375,0,0,0,0,0
0.937,-5.625,0,0,0,0,0
0.938,-5.75,0,0,0,0,0
0.939,-5.9375,0,0,0,0,0
0.94,-5.4375,0,0,0,0,0
0.941,-5.4375,0,0,0,0,0
0.942,-6,0,0,0,0,0
0.943,-6.0625,0,0,0,0,0
0.944,-7,0,0,0,0,0
0.945,-7.8125,0,0,0,0,0
0.946,-8.5,0,0,0,0,0
0.947,-8.25,0,0,0,0,0
0.948,-8.5,0,0,0,0,0
0.949,-8.75,0,0,0,0,0
0.95,-8.5,0,0,0,0,0
0.951,-7.8125,0,0,0,0,0
0.952,-7.375,0,0,0,0,0
0.953,-7.3125,0,0,0,0,0
0.954,-7.125,0,0,0,0,0
0.955,-7,0,0,0,0,0
0.956,-7,0,0,0,0,0
0.957,-6.875,0,0,0,0,0
0.958,-7.125,0,0,0,0,0
0.959,-6.375,0,0,0,0,0
0.96,-6.875,0,0,0,0,0
0.961,-6.875,0,0,0,0,0
0.962,-7.5625,0,0,0,0,0
0.963,-8.4375,0,0,0,0,0
0.964,-8.0625,0,0,0,0,0
0.965,-8.25,0,0,0,0,0
0.966,-8.25,0,0,0,0,0
0.967,-8.4375,0,0,0,0,0
0.968,-8.75,0,0,0,0,0
0.969,-9.375,0,0,0,0,0
0.97,-9.375,0,0,0,0,0
0.971,-9.375,0,0,0,0,0
0.972,-9.375,0,0,0,0,0
0.973,-9.375,0,0,0,0,0
0.974,-9.1875,0,0,0,0,0
0.975,-9.6875,0,0,0,0,0
0.976,-9.6875,0,0,0,0,0
0.977,-10.125,0,0,0,0,0
0.978,-10.313,0,0,0,0,0
0.979,-10,0,0,0,0,0
0.98,-9.6875,0,0,0,0,0
0.981,-9.1875,0,0,0,0,0
0.982,-9.4375,0,0,0,0,0
0.983,-9.375,0,0,0,0,0
0.984,-8.875,0,0,0,0,0
0.985,-8.875,0,0,0,0,0
0.986,-8.8125,0,0,0,0,0
0.987,-9.1875,0,0,0,0,0
0.988,-9,0,0,0,0,0
0.989,-9.375,0,0,0,0,0
0.99,-8.9375,0,0,0,0,0
0.991,-8.5625,0,0,0,0,0
0.992,-8.5,0,0,0,0,0
0.993,-7.8125,0,0,0,0,0
0.994,-8.25,0,0,0,0,0
0.995,-8.125,0,0,0,0,0
0.996,-8,0,0,0,0,0
0.997,-7.9375,0,0,0,0,0
0.998,-8.3125,0,0,0,0,0
0.999,-8.4375,0,0,0,0,0
1,-8.1875,0,0,0,0,0
1.001,-7.625,0,0,0,0,0
1.002,-7.625,0,0,0,0,0
1.003,-7.5,0,0,0,0,0
1.004,-7.375,0,0,0,0,0
1.005,-7.8125,0,0,0,0,0
1.006,-6.9375,0,0,0,0,0
1.007,-6.375,0,0,0,0,0
1.008,-6.5,0,0,0,0,0
1.009,-6.6875,0,0,0,0,0
1.01,-6.625,0,0,0,0,0
1.011,-6.5625,0,0,0,0,0
1.012,-6.6875,0,0,0,0,0
1.013,-6.0625,0,0,0,0,0
1.014,-6.25,0,0,0,0,0
1.015,-6.0625,0,0,0,0,0
1.016,-6.125,0,0,0,0,0
1.017,-5.75,0,0,0,0,0
1.018,-5.625,0,0,0,0,0
1.019,-5.4375,0,0,0,0,0
1.02,-5.0625,0,0,0,0,0
1.021,-4.8125,0,0,0,0,0
1.022,-4.4375,0,0,0,0,0
1.023,-4.375,0,0,0,0,0
1.024,-4.875,0,0,0,0,0
1.025,-5.3125,0,0,0,0,0
1.026,-5,0,0,0,0,0
1.027,-5,0,0,0,0,0
1.028,-4.9375,0,0,0,0,0
1.029,-4.8125,0,0,0,0,0
1.03,-4.8125,0,0,0,0,0
1.031,-5,0,0,0,0,0
1.032,-5.0625,0,0,0,0,0
1.033,-5.3125,0,0,0,0,0
1.034,-4.5,0,0,0,0,0
1.035,-3.75,0,0,0,0,0
1.036,-3.75,0,0,0,0,0
1.037,-3.5625,0,0,0,0,0
1.038,-4.125,0,0,0,0,0
1.039,-4.0625,0,0,0,0,0
1.04,-4.0625,0,0,0,0,0
1.041,-4.0625,0,0,0,0,0
1.042,-4.0625,0,0,0,0,0
1.043,-3.5625,0,0,0,0,0
1.044,-2.625,0,0,0,0,0
1.045,-2.5,0,0,0,0,0
1.046,-2.375,0,0,0,0,0
1.047,-3.125,0,0,0,0,0
1.048,-2.75,0,0,0,0,0
1.049,-2.5,0,0,0,0,0
1.05,-1.875,0,0,0,0,0
1.051,-1.0625,0,0,0,0,0
1.052,-1.0625,0,0,0,0,0
1.053,-1.0625,0,0,0,0,0
1.054,-2.375,0,0,0,0,0
1.055,-3.5625,0,0,0,0,0
1.056,-4.125,0,0,0,0,0
1.057,-4.5,0,0,0,0,0
1.058,-4.5,0,0,0,0,0
1.059,-4.375,0,0,0,0,0
1.06,-3.75,0,0,0,0,0
1.061,-3.4375,0,0,0,0,0
1.062,-3.6875,0,0,0,0,0
1.063,-3.5625,0,0,0,0,0
1.064,-3.25,0,0,0,0,0
1.065,-3.125,0,0,0,0,0
1.066,-2.3125,0,0,0,0,0
1.067,-2.3125,0,0,0,0,0
1.068,-2.1875,0,0,0,0,0
1.069,-2.5,0,0,0,0,0
1.07,-2.4375,0,0,0,0,0
1.071,-2.1875,0,0,0,0,0
1.072,-1.8125,0,0,0,0,0
1.073,-1.5625,0,0,0,0,0
1.074,-1.6875,0,0,0,0,0
1.075,-1.6875,0,0,0,0,0
1.076,-2.3125,0,0,0,0,0
1.077,-2.625,0,0,0,0,0
1.078,-3.0625,0,0,0,0,0
1.079,-3.25,0,0,0,0,0
1.08,-3.3125,0,0,0,0,0
1.081,-2.9375,0,0,0,0,0
1.082,-3.125,0,0,0,0,0
1.083,-3.4375,0,0,0,0,0
1.084,-3.1875,0,0,0,0,0
1.085,-3.25,0,0,0,0,0
1.086,-2.875,0,0,0,0,0
1.087,-2.3125,0,0,0,0,0
1.088,-2.25,0,0,0,0,0
1.089,-2.1875,0,0,0,0,0
1.09,-1.5625,0,0,0,0,0
1.091,-1.0625,0,0,0,0,0
1.092,-0.75,0,0,0,0,0
1.093,-1.0625,0,0,0,0,0
1.094,-2.25,0,0,0,0,0
1.095,-2.5,0,0,0,0,0
1.096,-2.5,0,0,0,0,0
1.097,-2,0,0,0,0,0
1.098,-1.9375,0,0,0,0,0
1.099,-1.25,0,0,0,0,0
1.1,-1.75,0,0,0,0,0
1.101,-2.3125,0,0,0,0,0
1.102,-2.5625,0,0,0,0,0
1.103,-2.625,0,0,0,0,0
1.104,-2,0,0,0,0,0
1.105,-2.625,0,0,0,0,0
1.106,-3.3125,0,0,0,0,0
1.107,-4.0625,0,0,0,0,0
1.108,-3.5625,0,0,0,0,0
1.109,-3.75,0,0,0,0,0
1.11,-3.0625,0,0,0,0,0
1.111,-1.875,0,0,0,0,0
1.112,-2.4375,0,0,0,0,0
1.113,-2.5,0,0,0,0,0
1.114,-2.8125,0,0,0,0,0
1.115,-2.625,0,0,0,0,0
1.116,-2.5,1,0,0,0,0
1.117,-2.3125,0,0,0,0,0
1.118,-2.3125,0,0,0,0,0
1.119,-2,0,0,0,0,0
1.12,-2.125,0,0,0,0,0
1.121,-2.1875,0,0,0,0,0
1.122,-3.5625,0,0,0,0,0
1.123,-5.125,0,0,0,0,0
1.124,-4.9375,0,0,0,0,0
1.125,-5.3125,0,0,0,0,0
1.126,-5.5625,0,0,0,0,0
1.127,-5.75,0,0,0,0,0
1.128,-6.3125,0,0,0,0,0
1.129,-7.5,0,0,0,0,0
1.13,-7.875,0,0,0,0,0
1.131,-8.25,0,0,0,0,0
1.132,-8.3125,0,0,0,0,0
1.133,-8.5625,0,0,0,0,0
1.134,-10.063,0,0,0,0,0
1.135,-11.25,0,0,0,0,0
1.136,-11.875,0,0,0,0,0
1.137,-12.5,0,0,0,0,0
1.138,-13.25,0,0,0,0,0
1.139,-14.5,0,0,0,0,0
1.14,-16.625,0,0,0,0,0
1.141,-19.063,0,0,0,0,0
1.142,-21.688,0,0,0,0,0
1.143,-24.375,0,0,0,0,0
1.144,-26,0,0,0,0,0
1.145,-27.5,0,0,0,0,0
1.146,-28.75,0,0,0,0,0
1.147,-30.438,0,0,0,0,0
1.148,-31.625,0,0,0,0,0
1.149,-32.5,0,0,0,0,0
1.15,-33.75,0,0,0,0,0
1.151,-34.813,0,0,0,0,0
1.152,-34.938,0,1,0,0,0
1.153,-34.688,0,0,0,0,0
1.154,-34.688,0,0,0,0,0
1.155,-33.875,0,0,0,0,0
1.156,-32.813,0,0,0,0,0
1.157,-31.688,0,0,0,0,0
1.158,-30,0,0,0,0,0
1.159,-27.625,0,0,0,0,0
1.16,-25.188,0,0,0,0,0
1.161,-22.188,0,0,0,0,0
1.162,-18.313,0,0,0,0,0
1.163,-13.75,0,0,0,0,0
1.164,-11.375,0,0,0,0,0
1.165,-10,0,0,0,0,0
1.166,-7.25,0,0,0,0,0
1.167,-4.6875,0,0,0,0,0
1.168,-2.25,0,0,0,0,0
1.169,-0.3125,0,0,0,0,0
1.17,-0.3125,0,0,0,0,0
1.171,0.3125,0,0,0,0,0
1.172,0.875,0,0,0,0,0
1.173,0.9375,0,0,0,0,0
1.174,0.5625,0,0,0,0,0
1.175,0.9375,0,0,0,0,0
1.176,2.25,0,0,0,0,0
1.177,3.4375,0,0,0,0,0
1.178,4.4375,0,0,0,0,0
1.179,4.375,0,0,0,0,0
1.18,4.5625,0,0,0,0,0
1.181,4.875,0,0,0,0,0
1.182,4.625,0,0,0,0,0
1.183,4.25,0,0,0,0,0
1.184,3.75,0,0,0,0,0
1.185,4.25,0,0,0,0,0
1.186,4.3125,0,0,0,0,0
1.187,4.25,0,0,0,0,0
1.188,4.125,0,0,0,0,0
1.189,4.6875,0,0,0,0,0
1.19,4.75,0,0,0,0,0
1.191,4.875,0,0,0,0,0
1.192,4.9375,0,0,0,0,0
1.193,4.6875,0,0,0,0,0
1.194,4.5625,0,0,0,0,0
1.195,4.6875,0,0,0,0,0
1.196,5.25,0,0,0,0,0
1.197,5.1875,0,0,0,0,0
1.198,4.3125,0,0,0,0,0
1.199,4.0625,0,0,0,0,0
1.2,3.5625,0,0,0,0,0
1.201,3,0,0,0,0,0
1.202,3.5625,0,0,0,0,0
1.203,4.0625,0,0,0,0,0
1.204,3.4375,0,0,0,0,0
1.205,3,0,0,0,0,0
1.206,2.8125,0,0,0,0,0
1.207,3.3125,0,0,0,0,0
1.208,2.9375,0,0,0,0,0
1.209,3,0,0,0,0,0
1.21,3,0,0,0,0,0
1.211,3.125,0,0,0,0,0
1.212,3.4375,0,0,0,0,0
1.213,4.0625,0,0,0,0,0
1.214,4.375,0,0,0,0,0
1.215,5,0,0,0,0,0
1.216,5.1875,0,0,0,0,0
1.217,5.1875,0,0,0,0,0
1.218,5.5,0,0,0,0,0
1.219,5.5,0,0,0,0,0
1.22,5.25,0,0,0,0,0
1.221,5,0,0,0,0,0
1.222,4.875,0,0,0,0,0
1.223,5.1875,0,0,0,0,0
1.224,5.3125,0,0,0,0,0
1.225,5.625,0,0,0,0,0
1.226,5.1875,0,0,0,0,0
1.227,5.3125,0,0,0,0,0
1.228,5.8125,0,0,0,0,0
1.229,6.25,0,0,0,0,0
1.23,6.25,0,0,0,0,0
1.231,6.4375,0,0,0,0,0
1.232,6.375,0,0,0,0,0
1.233,6.25,0,0,0,0,0
1.234,6.375,0,0,0,0,0
1.235,6.125,0,0,0,0,0
1.236,5.75,0,0,0,0,0
1.237,5.8125,0,0,0,0,0
1.238,6.1875,0,0,0,0,0
1.239,6.125,0,0,0,0,0
1.24,6.25,0,0,0,0,0
1.241,6.125,0,0,0,0,0
1.242,6.3125,0,0,0,0,0
1.243,6.75,0,0,0,0,0
1.244,6.625,0,0,0,0,0
1.245,6.5625,0,0,0,0,0
1.246,6.25,0,0,0,0,0
1.247,5.8125,0,0,0,0,0
1.248,4.625,0,0,0,0,0
1.249,3.9375,0,0,0,0,0
1.25,3.3125,0,0,0,0,0
1.251,3.3125,0,0,0,0,0
1.252,3.1875,0,0,0,0,0
1.253,3.3125,0,0,0,0,0
1.254,3.625,0,0,0,0,0
1.255,3.3125,0,0,0,0,0
1.256,2.625,0,0,0,0,0
1.257,1.75,0,0,0,0,0
1.258,1,0,0,0,0,0
1.259,0,0,0,0,0,0
1.26,0.1875,0,0,0,0,0
1.261,0.3125,0,0,0,0,0
1.262,0.875,0,0,0,0,0
1.263,1.875,0,0,0,0,0
1.264,1.125,0,0,0,0,0
1.265,0.8125,0,0,0,0,0
1.266,0.1875,0,0,0,0,0
1.267,-0.125,0,0,0,0,0
1.268,-0.625,0,0,0,0,0
1.269,-1.375,0,0,0,0,0
1.27,-2.5625,0,0,0,0,0
1.271,-3.125,0,0,0,0,0
1.272,-3.25,0,0,0,0,0
1.273,-3.5625,0,0,0,0,0
1.274,-3.1875,0,0,0,0,0
1.275,-2.9375,0,0,0,0,0
1.276,-2.875,0,0,0,0,0
1.277,-3.4375,0,0,0,0,0
1.278,-3.875,0,0,0,0,0
1.279,-4.1875,0,0,0,0,0
1.28,-4.125,0,0,0,0,0
1.281,-3.875,0,0,0,0,0
1.282,-4.125,0,0,0,0,0
1.283,-3.875,0,0,0,0,0
1.284,-3.8125,0,0,1,0,0
1.285,-3.75,0,0,0,0,0
1.286,-3.625,0,0,0,0,0
1.287,-3.5625,0,0,0,0,0
1.288,-3.9375,0,0,0,0,0
1.289,-4.5,0,0,0,0,0
1.29,-4.3125,0,0,0,0,0
1.291,-3.875,0,0,0,0,0
1.292,-3.9375,0,0,0,0,0
1.293,-4.5,0,0,0,0,0
1.294,-4.125,0,0,0,0,0
1.295,-4.0625,0,0,0,0,0
1.296,-4,0,0,0,0,0
1.297,-4.0625,0,0,0,0,0
1.298,-4.25,0,0,0,0,0
1.299,-4.6875,0,0,0,0,0
1.3,-4.3125,0,0,0,0,0
1.301,-4.1875,0,0,0,0,0
1.302,-4,0,0,0,0,0
1.303,-3.4375,0,0,0,0,0
1.304,-3.5625,0,0,0,0,0
1.305,-2.9375,0,0,0,0,0
1.306,-3.875,0,0,0,0,0
1.307,-3.75,0,0,0,0,0
1.308,-4.5625,0,0,0,0,0
1.309,-5.3125,0,0,0,0,0
1.31,-5.125,0,0,0,0,0
1.311,-5,0,0,0,0,0
1.312,-4.75,0,0,0,0,0
1.313,-4.5,0,0,0,0,0
1.314,-4.6875,0,0,0,0,0
1.315,-4.5,0,0,0,0,0
1.316,-4.375,0,0,0,0,0
1.317,-4.6875,0,0,0,0,0
1.318,-4.4375,0,0,0,0,0
1.319,-4.1875,0,0,0,0,0
1.32,-4,0,0,0,0,0
1.321,-3.75,0,0,0,0,0
1.322,-3.5625,0,0,0,0,0
1.323,-3.5625,0,0,0,0,0
1.324,-3.875,0,0,0,0,0
1.325,-4.1875,0,0,0,0,0
1.326,-4.0625,0,0,0,0,0
1.327,-4.0625,0,0,0,0,0
1.328,-4.375,0,0,0,0,0
1.329,-4.5,0,0,0,0,0
1.33,-4.4375,0,0,0,0,0
1.331,-4.6875,0,0,0,0,0
1.332,-5.125,0,0,0,0,0
1.333,-5.625,0,0,0,0,0
1.334,-5.5,0,0,0,0,0
1.335,-5.4375,0,0,0,0,0
1.336,-4.75,0,0,0,0,0
1.337,-4.1875,0,0,0,0,0
1.338,-4.1875,0,0,0,0,0
1.339,-4.1875,0,0,0,0,0
1.34,-3.75,0,0,0,0,0
1.341,-3.75,0,0,0,0,0
1.342,-3.625,0,0,0,0,0
1.343,-3.5625,0,0,0,0,0
1.344,-4.25,0,0,0,0,0
1.345,-4.8125,0,0,0,0,0
1.346,-5.1875,0,0,0,0,0
1.347,-5.625,0,0,0,0,0
1.348,-5.25,0,0,0,0,0
1.349,-4.8125,0,0,0,0,0
1.35,-4.375,0,0,0,0,0
1.351,-4.0625,0,0,0,0,0
1.352,-4.25,0,0,0,0,0
1.353,-4.5,0,0,0,0,0
1.354,-4.5625,0,0,0,0,0
1.355,-4.8125,0,0,0,0,0
1.356,-4.3125,0,0,0,0,0
1.357,-4.0625,0,0,0,0,0
1.358,-4,0,0,0,0,0
1.359,-3.75,0,0,0,0,0
1.36,-3.8125,0,0,0,0,0
1.361,-3.875,0,0,0,0,0
1.362,-4,0,0,0,0,0
1.363,-3.5625,0,0,0,0,0
1.364,-3.4375,0,0,0,0,0
1.365,-3.25,0,0,0,0,0
1.366,-4.375,0,0,0,0,0
1.367,-5,0,0,0,0,0
1.368,-5.0625,0,0,0,0,0
1.369,-5.125,0,0,0,0,0
1.37,-5.25,0,0,0,0,0
1.371,-5,0,0,0,0,0
1.372,-4.1875,0,0,0,0,0
1.373,-3.75,0,0,0,0,0
1.374,-3.6875,0,0,0,0,0
1.375,-3.5625,0,0,0,0,0
1.376,-3.875,0,0,0,0,0
1.377,-4.375,0,0,0,0,0
1.378,-4.4375,0,0,0,0,0
1.379,-4.5,0,0,0,0,0
1.38,-3.8125,0,0,0,0,0
1.381,-3.5625,0,0,0,0,0
1.382,-4.1875,0,0,0,0,0
1.383,-5.125,0,0,0,0,0
1.384,-4.875,0,0,0,0,0
1.385,-5.125,0,0,0,0,0
1.386,-5.125,0,0,0,0,0
1.387,-5.125,0,0,0,0,0
1.388,-5.0625,0,0,0,0,0
1.389,-5.125,0,0,0,0,0
1.39,-4.8125,0,0,0,0,0
1.391,-4.6875,0,0,0,0,0
1.392,-4.4375,0,0,0,0,0
1.393,-5,0,0,0,0,0
1.394,-5.6875,0,0,0,0,0
1.395,-6.5625,0,0,0,0,0
1.396,-6.3125,0,0,0,0,0
1.397,-6.6875,0,0,0,0,0
1.398,-5.75,0,0,0,0,0
1.399,-5.125,0,0,0,0,0
1.4,-4.9375,0,0,0,0,0
1.401,-5,0,0,0,0,0
1.402,-5.125,0,0,0,0,0
1.403,-4.8125,0,0,0,0,0
1.404,-5.4375,0,0,0,0,0
1.405,-5.75,0,0,0,0,0
1.406,-5.25,0,0,0,0,0
1.407,-5,0,0,0,0,0
1.408,-5,0,0,0,0,0
1.409,-5,0,0,0,0,0
1.41,-5.75,0,0,0,0,0
1.411,-6.25,0,0,0,0,0
1.412,-6.125,0,0,0,0,0
1.413,-6.375,0,0,0,0,0
1.414,-5.875,0,0,0,0,0
1.415,-5,0,0,0,0,0
1.416,-5,0,0,0,0,0
1.417,-4.8125,0,0,0,0,0
1.418,-4.75,0,0,0,0,0
1.419,-5,0,0,0,0,0
1.42,-5.125,0,0,0,0,0
1.421,-5,0,0,0,0,0
1.422,-4.6875,0,0,0,0,0
1.423,-4.6875,0,0,0,0,0
1.424,-4.3125,0,0,0,0,0
1.425,-4.0625,0,0,0,0,0
1.426,-3.9375,0,0,0,0,0
1.427,-3.75,0,0,0,0,0
1.428,-4.3125,0,0,0,0,0
1.429,-5.3125,0,0,0,0,0
1.43,-5.6875,0,0,0,0,0
1.431,-5.9375,0,0,0,0,0
1.432,-6.375,0,0,0,0,0
1.433,-6.375,0,0,0,0,0
1.434,-6.125,0,0,0,0,0
1.435,-6.0625,0,0,0,0,0
1.436,-5.8125,0,0,0,0,0
1.437,-6.5625,0,0,0,0,0
1.438,-6.625,0,0,0,0,0
1.439,-6.6875,0,0,0,0,0
1.44,-7.0625,0,0,0,0,0
1.441,-7,0,0,0,0,0
1.442,-7.125,0,0,0,0,0
1.443,-7.1875,0,0,0,0,0
1.444,-7.3125,0,0,0,0,0
1.445,-7.1875,0,0,0,0,0
1.446,-7.3125,0,0,0,0,0
1.447,-7.3125,0,0,0,0,0
1.448,-7.25,0,0,0,0,0
1.449,-7.3125,0,0,0,0,0
1.45,-6.9375,0,0,0,0,0
1.451,-6.6875,0,0,0,0,0
1.452,-6.875,0,0,0,0,0
1.453,-7.5,0,0,0,0,0
1.454,-8,0,0,0,0,0
1.455,-8.875,0,0,0,0,0
1.456,-8.25,0,0,0,0,0
1.457,-7.3125,0,0,0,0,0
1.458,-7.875,0,0,0,0,0
1.459,-8.4375,0,0,0,0,0
1.46,-9,0,0,0,0,0
1.461,-9.6875,0,0,0,0,0
1.462,-9.3125,0,0,0,0,0
1.463,-9.0625,0,0,0,0,0
1.464,-9.25,0,0,0,0,0
1.465,-8.75,0,0,0,0,0
1.466,-9.3125,0,0,0,0,0
1.467,-8.75,0,0,0,0,0
1.468,-8.125,0,0,0,0,0
1.469,-7.9375,0,0,0,0,0
1.47,-8.3125,0,0,0,0,0
1.471,-8.125,0,0,0,0,0
1.472,-8.5625,0,0,0,0,0
1.473,-9.1875,0,0,0,0,0
1.474,-9.4375,0,0,0,0,0
1.475,-9.8125,0,0,0,0,0
1.476,-9.75,0,0,0,0,0
1.477,-9.6875,0,0,0,0,0
1.478,-9.1875,0,0,0,0,0
1.479,-9.0625,0,0,0,0,0
1.48,-9.125,0,0,0,0,0
1.481,-9.5,0,0,0,0,0
1.482,-9.8125,0,0,0,0,0
1.483,-9.5,0,0,0,0,0
1.484,-9.4375,0,0,0,0,0
1.485,-9.5,0,0,0,1,0
1.486,-9.75,0,0,0,0,0
1.487,-9.5,0,0,0,0,0
1.488,-9.25,0,0,0,0,0
1.489,-9.375,0,0,0,0,0
1.49,-9.125,0,0,0,0,0
1.491,-9.375,0,0,0,0,0
1.492,-9.3125,0,0,0,0,0
1.493,-9.5,0,0,0,0,0
1.494,-9.375,0,0,0,0,0
1.495,-9.1875,0,0,0,0,0
1.496,-9,0,0,0,0,0
1.497,-8.875,0,0,0,0,0
1.498,-8.375,0,0,0,0,0
1.499,-8.4375,0,0,0,0,0
1.5,-8.4375,0,0,0,0,0
1.501,-8.4375,0,0,0,0,0
1.502,-8.0625,0,0,0,0,0
1.503,-8.25,0,0,0,0,0
1.504,-8.1875,0,0,0,0,0
1.505,-8.125,0,0,0,0,0
1.506,-8.0625,0,0,0,0,0
1.507,-7.8125,0,0,0,0,0
1.508,-8.25,0,0,0,0,0
1.509,-8.25,0,0,0,0,0
1.51,-7.9375,0,0,0,0,0
1.511,-7.625,0,0,0,0,0
1.512,-7.25,0,0,0,0,0
1.513,-7,0,0,0,0,0
1.514,-7.1875,0,0,0,0,0
1.515,-7,0,0,0,0,0
1.516,-6.75,0,0,0,0,0
1.517,-6.875,0,0,0,0,0
1.518,-7.25,0,0,0,0,0
1.519,-7.3125,0,0,0,0,0
1.52,-7.375,0,0,0,0,0
1.521,-7.3125,0,0,0,0,0
1.522,-7.0625,0,0,0,0,0
1.523,-7.1875,0,0,0,0,0
1.524,-7.625,0,0,0,0,0
1.525,-7.9375,0,0,0,0,0
1.526,-6.5625,0,0,0,0,0
1.527,-5.3125,0,0,0,0,0
1.528,-5,0,0,0,0,0
1.529,-5.125,0,0,0,0,0
1.53,-5.0625,0,0,0,0,0
1.531,-5.125,0,0,0,0,0
1.532,-6.25,0,0,0,0,0
1.533,-7.1875,0,0,0,0,0
1.534,-6.5625,0,0,0,0,0
1.535,-6.375,0,0,0,0,0
1.536,-5.8125,0,0,0,0,0
1.537,-5.625,0,0,0,0,0
1.538,-5.6875,0,0,0,0,0
1.539,-6.25,0,0,0,0,0
1.54,-5.875,0,0,0,0,0
1.541,-5.3125,0,0,0,0,0
1.542,-5.3125,0,0,0,0,0
1.543,-5,0,0,0,0,0
1.544,-5.1875,0,0,0,0,0
1.545,-5.125,0,0,0,0,0
1.546,-5.1875,0,0,0,0,0
1.547,-5.4375,0,0,0,0,0
1.548,-5.875,0,0,0,0,0
1.549,-6.5625,0,0,0,0,0
1.55,-6.375,0,0,0,0,0
1.551,-6.6875,0,0,0,0,0
1.552,-6,0,0,0,0,0
1.553,-5.125,0,0,0,0,0
1.554,-4.9375,0,0,0,0,0
1.555,-4.375,0,0,0,0,0
1.556,-4.625,0,0,0,0,0
1.557,-5.3125,0,0,0,0,0
1.558,-5.0625,0,0,0,0,0
1.559,-5.3125,0,0,0,0,0
1.56,-5.1875,0,0,0,0,0
1.561,-5.125,0,0,0,0,0
1.562,-4.625,0,0,0,0,0
1.563,-4.0625,0,0,0,0,0
1.564,-4.125,0,0,0,0,1
1.565,-4.375,0,0,0,0,0
1.566,-4.1875,0,0,0,0,0
1.567,-3.75,0,0,0,0,0
1.568,-3.0625,0,0,0,0,0
1.569,-2.625,0,0,0,0,0
1.57,-3.875,0,0,0,0,0
1.571,-4.6875,0,0,0,0,0
1.572,-4.0625,0,0,0,0,0
1.573,-3.75,0,0,0,0,0
1.574,-3.75,0,0,0,0,0
1.575,-3.875,0,0,0,0,0
1.576,-3.875,0,0,0,0,0
1.577,-4.0625,0,0,0,0,0
1.578,-3.9375,0,0,0,0,0
1.579,-4.5,0,0,0,0,0
1.58,-4.5,0,0,0,0,0
1.581,-4.1875,0,0,0,0,0
1.582,-4.4375,0,0,0,0,0
1.583,-4.375,0,0,0,0,0
1.584,-4.625,0,0,0,0,0
1.585,-4.5,0,0,0,0,0
1.586,-4.125,0,0,0,0,0
1.587,-4.5,0,0,0,0,0
1.588,-4.4375,0,0,0,0,0
1.589,-4.6875,0,0,0,0,0
1.59,-4.75,0,0,0,0,0
1.591,-5,0,0,0,0,0
1.592,-4.875,0,0,0,0,0
1.593,-5.3125,0,0,0,0,0
1.594,-4.75,0,0,0,0,0
1.595,-4.375,0,0,0,0,0
1.596,-4.75,0,0,0,0,0
1.597,-5.125,0,0,0,0,0
1.598,-4.75,0,0,0,0,0
1.599,-4.1875,0,0,0,0,0
1.6,-3.625,0,0,0,0,0
1.601,-3.125,0,0,0,0,0
1.602,-3.4375,0,0,0,0,0
1.603,-3.4375,0,0,0,0,0
1.604,-3.625,0,0,0,0,0
1.605,-3.875,0,0,0,0,0
1.606,-4.6875,0,0,0,0,0
1.607,-4.6875,0,0,0,0,0
1.608,-5.3125,0,0,0,0,0
1.609,-5.75,0,0,0,0,0
1.61,-5.375,0,0,0,0,0
1.611,-5.125,0,0,0,0,0
1.612,-4.625,0,0,0,0,0
1.613,-4.5,0,0,0,0,0
1.614,-4.625,0,0,0,0,0
1.615,-4.6875,0,0,0,0,0
1.616,-4.9375,0,0,0,0,0
1.617,-5,0,0,0,0,0
1.618,-4.5,0,0,0,0,0
1.619,-4.6875,0,0,0,0,0
1.62,-5.4375,0,0,0,0,0
1.621,-5.75,0,0,0,0,0
1.622,-5.9375,0,0,0,0,0
1.623,-5.9375,0,0,0,0,0
1.624,-5.8125,0,0,0,0,0
1.625,-5.75,0,0,0,0,0
1.626,-5.375,0,0,0,0,0
1.627,-5.125,0,0,0,0,0
1.628,-5.5,0,0,0,0,0
1.629,-5.9375,0,0,0,0,0
1.63,-6.375,0,0,0,0,0
1.631,-6.875,0,0,0,0,0
1.632,-6.1875,0,0,0,0,0
1.633,-5.3125,0,0,0,0,0
1.634,-5.125,0,0,0,0,0
1.635,-4.6875,0,0,0,0,0
1.636,-4.8125,0,0,0,0,0
1.637,-4.8125,0,0,0,0,0
1.638,-4.9375,0,0,0,0,0
1.639,-5.3125,0,0,0,0,0
1.64,-5.1875,0,0,0,0,0
1.641,-5,0,0,0,0,0
1.642,-5.25,0,0,0,0,0
1.643,-5.4375,0,0,0,0,0
1.644,-5.875,0,0,0,0,0
1.645,-6.5625,0,0,0,0,0
1.646,-6.25,0,0,0,0,0
1.647,-5.4375,0,0,0,0,0
1.648,-5.375,0,0,0,0,0
1.649,-5.125,0,0,0,0,0
1.65,-4.9375,0,0,0,0,0
1.651,-4.6875,0,0,0,0,0
1.652,-4.8125,0,0,0,0,0
1.653,-5,0,0,0,0,0
1.654,-4.8125,0,0,0,0,0
1.655,-5.125,0,0,0,0,0
1.656,-4.8125,0,0,0,0,0
1.657,-5,0,0,0,0,0
1.658,-4.5,0,0,0,0,0
1.659,-4.5,0,0,0,0,0
1.66,-4.875,0,0,0,0,0
1.661,-4.8125,0,0,0,0,0
1.662,-4.75,0,0,0,0,0
1.663,-5,0,0,0,0,0
1.664,-5.1875,0,0,0,0,0
1.665,-5.125,0,0,0,0,0
1.666,-4.875,0,0,0,0,0
1.667,-4.6875,0,0,0,0,0
1.668,-4.875,0,0,0,0,0
1.669,-5,0,0,0,0,0
1.67,-4.6875,0,0,0,0,0
1.671,-4.5,0,0,0,0,0
1.672,-4.9375,0,0,0,0,0
1.673,-5,0,0,0,0,0
1.674,-5,0,0,0,0,0
1.675,-5,0,0,0,0,0
1.676,-5,0,0,0,0,0
1.677,-4.8125,0,0,0,0,0
1.678,-4.6875,0,0,0,0,0
1.679,-4.6875,0,0,0,0,0
1.68,-4.125,0,0,0,0,0
1.681,-3.75,0,0,0,0,0
1.682,-4.625,0,0,0,0,0
1.683,-5.125,0,0,0,0,0
1.684,-5.375,0,0,0,0,0
1.685,-5.125,0,0,0,0,0
1.686,-4.875,0,0,0,0,0
1.687,-4.6875,0,0,0,0,0
1.688,-4.4375,0,0,0,0,0
1.689,-4.8125,0,0,0,0,0
1.69,-4.625,0,0,0,0,0
1.691,-4.6875,0,0,0,0,0
1.692,-5.0625,0,0,0,0,0
1.693,-5.125,0,0,0,0,0
1.694,-4.875,0,0,0,0,0
1.695,-5,0,0,0,0,0
1.696,-5.3125,0,0,0,0,0
1.697,-5.125,0,0,0,0,0
1.698,-4.75,0,0,0,0,0
1.699,-4.5,0,0,0,0,0
1.7,-4.4375,0,0,0,0,0
1.701,-4.5,0,0,0,0,0
1.702,-4.4375,0,0,0,0,0
1.703,-5,0,0,0,0,0
1.704,-5.0625,0,0,0,0,0
1.705,-5.625,0,0,0,0,0
1.706,-5.5,0,0,0,0,0
1.707,-5,0,0,0,0,0
1.708,-4.5625,0,0,0,0,0
1.709,-4.5,0,0,0,0,0
1.71,-4.4375,0,0,0,0,0
1.711,-5.125,0,0,0,0,0
1.712,-4.875,0,0,0,0,0
1.713,-5.125,0,0,0,0,0
1.714,-4.8125,0,0,0,0,0
1.715,-4.6875,0,0,0,0,0
1.716,-4.8125,0,0,0,0,0
1.717,-4.8125,0,0,0,0,0
1.718,-4.375,0,0,0,0,0
1.719,-3.875,0,0,0,0,0
1.72,-4.1875,0,0,0,0,0
1.721,-4.1875,0,0,0,0,0
1.722,-4.375,0,0,0,0,0
1.723,-4.5,0,0,0,0,0
1.724,-4.9375,0,0,0,0,0
1.725,-5.125,0,0,0,0,0
1.726,-5.625,0,0,0,0,0
1.727,-6.0625,0,0,0,0,0
1.728,-6.5,0,0,0,0,0
1.729,-6.6875,0,0,0,0,0
1.73,-6.5625,0,0,0,0,0
1.731,-6.375,0,0,0,0,0
1.732,-6.4375,0,0,0,0,0
1.733,-6.375,0,0,0,0,0
1.734,-6.625,0,0,0,0,0
1.735,-6.875,0,0,0,0,0
1.736,-7.0625,0,0,0,0,0
1.737,-7.1875,0,0,0,0,0
1.738,-6.875,0,0,0,0,0
1.739,-6.875,0,0,0,0,0
1.74,-6.8125,0,0,0,0,0
1.741,-7.1875,0,0,0,0,0
1.742,-7.25,0,0,0,0,0
1.743,-7.8125,0,0,0,0,0
1.744,-8.25,0,0,0,0,0
1.745,-8.75,0,0,0,0,0
1.746,-8.4375,0,0,0,0,0
1.747,-8.125,0,0,0,0,0
1.748,-8.5625,0,0,0,0,0
1.749,-9.0625,0,0,0,0,0
1.75,-8.625,0,0,0,0,0
1.751,-8.125,0,0,0,0,0
1.752,-8.1875,0,0,0,0,0
1.753,-8.875,0,0,0,0,0
1.754,-8.5625,0,0,0,0,0
1.755,-8.875,0,0,0,0,0
1.756,-9.25,0,0,0,0,0
1.757,-9.6875,0,0,0,0,0
1.758,-9.5625,0,0,0,0,0
1.759,-9.375,0,0,0,0,0
1.76,-9.75,0,0,0,0,0
1.761,-9.5,0,0,0,0,0
1.762,-9.375,0,0,0,0,0
1.763,-9.1875,0,0,0,0,0
1.764,-9.75,0,0,0,0,0
1.765,-9.5,0,0,0,0,0
1.766,-9.125,0,0,0,0,0
1.767,-9.0625,0,0,0,0,0
1.768,-9.25,0,0,0,0,0
1.769,-9.375,0,0,0,0,0
1.77,-9.8125,0,0,0,0,0
1.771,-9.5,0,0,0,0,0
1.772,-9.1875,0,0,0,0,0
1.773,-9.0625,0,0,0,0,0
1.774,-9,0,0,0,0,0
1.775,-9.0625,0,0,0,0,0
1.776,-9,0,0,0,0,0
1.777,-9.5,0,0,0,0,0
1.778,-9.75,0,0,0,0,0
1.779,-9.6875,0,0,0,0,0
1.78,-9.8125,0,0,0,0,0
1.781,-9.5,0,0,0,0,0
1.782,-9.625,0,0,0,0,0
1.783,-9.1875,0,0,0,0,0
1.784,-9.0625,0,0,0,0,0
1.785,-8.4375,0,0,0,0,0
1.786,-8.25,0,0,0,0,0
1.787,-8.75,0,0,0,0,0
1.788,-9.625,0,0,0,0,0
1.789,-10.75,0,0,0,0,0
1.79,-10,0,0,0,0,0
1.791,-9.8125,0,0,0,0,0
1.792,-9.4375,0,0,0,0,0
1.793,-8.875,0,0,0,0,0
1.794,-8.6875,0,0,0,0,0
1.795,-8.875,0,0,0,0,0
1.796,-8.625,0,0,0,0,0
1.797,-8.75,0,0,0,0,0
1.798,-8.125,0,0,0,0,0
1.799,-7.3125,0,0,0,0,0
1.8,-7.5625,0,0,0,0,0
1.801,-7,0,0,0,0,0
1.802,-6.75,0,0,0,0,0
1.803,-6.875,0,0,0,0,0
1.804,-6.875,0,0,0,0,0
1.805,-6.875,0,0,0,0,0
1.806,-6.5625,0,0,0,0,0
1.807,-6.5625,0,0,0,0,0
1.808,-6.3125,0,0,0,0,0
1.809,-6.5625,0,0,0,0,0
1.81,-6.3125,0,0,0,0,0
1.811,-6.5625,0,0,0,0,0
1.812,-6.25,0,0,0,0,0
1.813,-6.25,0,0,0,0,0
1.814,-6,0,0,0,0,0
1.815,-5.4375,0,0,0,0,0
1.816,-5.8125,0,0,0,0,0
1.817,-6.25,0,0,0,0,0
1.818,-6.5,0,0,0,0,0
1.819,-6.5625,0,0,0,0,0
1.82,-6.4375,0,0,0,0,0
1.821,-6.0625,0,0,0,0,0
1.822,-5.5625,0,0,0,0,0
1.823,-5.125,0,0,0,0,0
1.824,-4.6875,0,0,0,0,0
1.825,-3.875,0,0,0,0,0
1.826,-3.875,0,0,0,0,0
1.827,-3.75,0,0,0,0,0
1.828,-3.5,0,0,0,0,0
1.829,-3.5625,0,0,0,0,0
1.83,-3.4375,0,0,0,0,0
1.831,-2.9375,0,0,0,0,0
1.832,-2.5625,0,0,0,0,0
1.833,-2.625,0,0,0,0,0
1.834,-2.75,0,0,0,0,0
1.835,-3.4375,0,0,0,0,0
1.836,-3.25,0,0,0,0,0
1.837,-3.5625,0,0,0,0,0
1.838,-3.75,0,0,0,0,0
1.839,-3.4375,0,0,0,0,0
1.84,-3.625,0,0,0,0,0
1.841,-3.25,0,0,0,0,0
1.842,-3.6875,0,0,0,0,0
1.843,-3.25,0,0,0,0,0
1.844,-2.9375,0,0,0,0,0
1.845,-2.625,0,0,0,0,0
1.846,-2.5,0,0,0,0,0
1.847,-2,0,0,0,0,0
1.848,-1.875,0,0,0,0,0
1.849,-2.3125,0,0,0,0,0
1.85,-2.5625,0,0,0,0,0
1.851,-2.9375,0,0,0,0,0
1.852,-2.875,0,0,0,0,0
1.853,-2.9375,0,0,0,0,0
1.854,-3.5625,0,0,0,0,0
1.855,-4.1875,0,0,0,0,0
1.856,-4.4375,0,0,0,0,0
1.857,-4.5,0,0,0,0,0
1.858,-4.25,0,0,0,0,0
1.859,-3.875,0,0,0,0,0
1.86,-4.25,0,0,0,0,0
1.861,-4.1875,0,0,0,0,0
1.862,-4.1875,0,0,0,0,0
1.863,-3.75,0,0,0,0,0
1.864,-3.5,0,0,0,0,0
1.865,-3.125,0,0,0,0,0
1.866,-2.875,0,0,0,0,0
1.867,-2.5,0,0,0,0,0
1.868,-3,0,0,0,0,0
1.869,-3.4375,0,0,0,0,0
1.87,-3,0,0,0,0,0
1.871,-3.125,0,0,0,0,0
1.872,-2.6875,0,0,0,0,0
1.873,-2.625,0,0,0,0,0
1.874,-3.3125,0,0,0,0,0
1.875,-4.0625,0,0,0,0,0
1.876,-3.4375,0,0,0,0,0
1.877,-3.125,0,0,0,0,0
1.878,-2.8125,0,0,0,0,0
1.879,-2.1875,0,0,0,0,0
1.88,-3,0,0,0,0,0
1.881,-3.5625,0,0,0,0,0
1.882,-3.4375,0,0,0,0,0
1.883,-3.875,0,0,0,0,0
1.884,-4.375,0,0,0,0,0
1.885,-4.375,0,0,0,0,0
1.886,-4.375,0,0,0,0,0
1.887,-4.0625,0,0,0,0,0
1.888,-4.125,0,0,0,0,0
1.889,-4.1875,0,0,0,0,0
1.89,-3.3125,0,0,0,0,0
1.891,-3.125,0,0,0,0,0
1.892,-2.8125,0,0,0,0,0
1.893,-3.125,0,0,0,0,0
1.894,-2.9375,0,0,0,0,0
1.895,-3.125,0,0,0,0,0
1.896,-2.625,0,0,0,0,0
1.897,-2.5,0,0,0,0,0
1.898,-2.6875,0,0,0,0,0
1.899,-2.3125,0,0,0,0,0
1.9,-3.125,0,0,0,0,0
1.901,-3.125,0,0,0,0,0
1.902,-3.8125,0,0,0,0,0
1.903,-3.75,0,0,0,0,0
1.904,-3.8125,0,0,0,0,0
1.905,-4.1875,0,0,0,0,0
1.906,-3.75,0,0,0,0,0
1.907,-3.875,0,0,0,0,0
1.908,-3.75,0,0,0,0,0
1.909,-3.75,0,0,0,0,0
1.91,-3.25,0,0,0,0,0
1.911,-3.25,0,0,0,0,0
1.912,-3,0,0,0,0,0
1.913,-3.125,1,0,0,0,0
1.914,-3.625,0,0,0,0,0
1.915,-4.375,0,0,0,0,0
1.916,-4.375,0,0,0,0,0
1.917,-4.375,0,0,0,0,0
1.918,-4.6875,0,0,0,0,0
1.919,-4.5,0,0,0,0,0
1.92,-4.625,0,0,0,0,0
1.921,-4.5,0,0,0,0,0
1.922,-4.9375,0,0,0,0,0
1.923,-5.125,0,0,0,0,0
1.924,-6.1875,0,0,0,0,0
1.925,-6.6875,0,0,0,0,0
1.926,-7.1875,0,0,0,0,0
1.927,-7.8125,0,0,0,0,0
1.928,-8.9375,0,0,0,0,0
1.929,-10.438,0,0,0,0,0
1.93,-11,0,0,0,0,0
1.931,-11.688,0,0,0,0,0
1.932,-12.688,0,0,0,0,0
1.933,-14.063,0,0,0,0,0
1.934,-16.313,0,0,0,0,0
1.935,-18.75,0,0,0,0,0
1.936,-20.938,0,0,0,0,0
1.937,-22.938,0,0,0,0,0
1.938,-24.938,0,0,0,0,0
1.939,-26.375,0,0,0,0,0
1.94,-27.313,0,0,0,0,0
1.941,-27.938,0,0,0,0,0
1.942,-29.75,0,0,0,0,0
1.943,-31.375,0,0,0,0,0
1.944,-32.563,0,0,0,0,0
1.945,-33.438,0,0,0,0,0
1.946,-33.75,0,0,0,0,0
1.947,-34.188,0,0,0,0,0
1.948,-34.875,0,0,0,0,0
1.949,-35.438,0,0,0,0,0
1.95,-35.188,0,0,0,0,0
1.951,-34.688,0,0,0,0,0
1.952,-33.438,0,0,0,0,0
1.953,-31.688,0,0,0,0,0
1.954,-30.125,0,0,0,0,0
1.955,-28.75,0,1,0,0,0
1.956,-26.688,0,0,0,0,0
1.957,-23.125,0,0,0,0,0
1.958,-18.375,0,0,0,0,0
1.959,-14.375,0,0,0,0,0
1.96,-12,0,0,0,0,0
1.961,-10,0,0,0,0,0
1.962,-7.125,0,0,0,0,0
1.963,-3.875,0,0,0,0,0
1.964,-1.4375,0,0,0,0,0
1.965,-0.3125,0,0,0,0,0
1.966,1.25,0,0,0,0,0
1.967,1.75,0,0,0,0,0
1.968,1.6875,0,0,0,0,0
1.969,1.25,0,0,0,0,0
1.97,1.5,0,0,0,0,0
1.971,2.1875,0,0,0,0,0
1.972,3.5625,0,0,0,0,0
1.973,5.1875,0,0,0,0,0
1.974,4.625,0,0,0,0,0
1.975,4.375,0,0,0,0,0
1.976,4.8125,0,0,0,0,0
1.977,4.875,0,0,0,0,0
1.978,4.5625,0,0,0,0,0
1.979,3.75,0,0,0,0,0
1.98,4.4375,0,0,0,0,0
1.981,4.875,0,0,0,0,0
1.982,4.5625,0,0,0,0,0
1.983,3.9375,0,0,0,0,0
1.984,3.9375,0,0,0,0,0
1.985,3.75,0,0,0,0,0
1.986,3.6875,0,0,0,0,0
1.987,3.9375,0,0,0,0,0
1.988,4.125,0,0,0,0,0
1.989,4.375,0,0,0,0,0
1.99,4.5,0,0,0,0,0
1.991,4.375,0,0,0,0,0
1.992,4.125,0,0,0,0,0
1.993,3.9375,0,0,0,0,0
1.994,4.625,0,0,0,0,0
1.995,5.1875,0,0,0,0,0
1.996,4.9375,0,0,0,0,0
1.997,5,0,0,0,0,0
1.998,5.75,0,0,0,0,0
1.999,5.625,0,0,0,0,0
2,4.625,0,0,0,0,0
2.001,3.4375,0,0,0,0,0
2.002,2.8125,0,0,0,0,0
2.003,1.875,0,0,0,0,0
2.004,1.75,0,0,0,0,0
2.005,1.75,0,0,0,0,0
2.006,2.4375,0,0,0,0,0
2.007,2.6875,0,0,0,0,0
2.008,3.4375,0,0,0,0,0
2.009,4.0625,0,0,0,0,0
2.01,4.625,0,0,0,0,0
2.011,5,0,0,0,0,0
2.012,4.625,0,0,0,0,0
2.013,4.0625,0,0,0,0,0
2.014,3.75,0,0,0,0,0
2.015,3.625,0,0,0,0,0
2.016,3.375,0,0,0,0,0
2.017,3.625,0,0,0,0,0
2.018,4.3125,0,0,0,0,0
2.019,4.375,0,0,0,0,0
2.02,5,0,0,0,0,0
2.021,5,0,0,0,0,0
2.022,5.125,0,0,0,0,0
2.023,5.1875,0,0,0,0,0
2.024,5.3125,0,0,0,0,0
2.025,4.875,0,0,0,0,0
2.026,4.8125,0,0,0,0,0
2.027,5.1875,0,0,0,0,0
2.028,5.3125,0,0,0,0,0
2.029,5.5,0,0,0,0,0
2.03,5.75,0,0,0,0,0
2.031,5.9375,0,0,0,0,0
2.032,6.0625,0,0,0,0,0
2.033,6.4375,0,0,0,0,0
2.034,6.9375,0,0,0,0,0
2.035,7.5,0,0,0,0,0
2.036,7.25,0,0,0,0,0
2.037,7.1875,0,0,0,0,0
2.038,6.8125,0,0,0,0,0
2.039,6.25,0,0,0,0,0
2.04,6.1875,0,0,0,0,0
2.041,5.9375,0,0,0,0,0
2.042,5.4375,0,0,0,0,0
2.043,4.875,0,0,0,0,0
2.044,4.375,0,0,0,0,0
2.045,3.3125,0,0,0,0,0
2.046,3.625,0,0,0,0,0
2.047,3.3125,0,0,0,0,0
2.048,3.0625,0,0,0,0,0
2.049,3.3125,0,0,0,0,0
2.05,2.625,0,0,0,0,0
2.051,2.1875,0,0,0,0,0
2.052,1.8125,0,0,0,0,0
2.053,1.5625,0,0,0,0,0
2.054,1.1875,0,0,0,0,0
2.055,1.125,0,0,0,0,0
2.056,0.9375,0,0,0,0,0
2.057,0.8125,0,0,0,0,0
2.058,0.625,0,0,0,0,0
2.059,-0.4375,0,0,0,0,0
2.06,-0.625,0,0,0,0,0
2.061,-0.9375,0,0,0,0,0
2.062,-0.9375,0,0,0,0,0
2.063,-1.25,0,0,0,0,0
2.064,-1.875,0,0,0,0,0
2.065,-2.625,0,0,0,0,0
2.066,-2.625,0,0,0,0,0
2.067,-2.625,0,0,0,0,0
2.068,-2.875,0,0,0,0,0
2.069,-2.8125,0,0,0,0,0
2.07,-3.25,0,0,0,0,0
2.071,-3.5625,0,0,0,0,0
2.072,-4.1875,0,0,0,0,0
2.073,-4.1875,0,0,0,0,0
2.074,-4.9375,0,0,0,0,0
2.075,-5.9375,0,0,0,0,0
2.076,-5.25,0,0,0,0,0
2.077,-5.125,0,0,0,0,0
2.078,-4.875,0,0,0,0,0
2.079,-4.5,0,0,0,0,0
2.08,-4.3125,0,0,0,0,0
2.081,-4.0625,0,0,0,0,0
2.082,-4.0625,0,0,0,0,0
2.083,-4.0625,0,0,0,0,0
2.084,-4.8125,0,0,0,0,0
2.085,-5.125,0,0,0,0,0
2.086,-5,0,0,0,0,0
2.087,-5.125,0,0,0,0,0
2.088,-5.8125,0,0,0,0,0
2.089,-5.625,0,0,0,0,0
2.09,-5.375,0,0,0,0,0
2.091,-5.4375,0,0,1,0,0
2.092,-5.3125,0,0,0,0,0
2.093,-4.6875,0,0,0,0,0
2.094,-4.6875,0,0,0,0,0
2.095,-4.5,0,0,0,0,0
2.096,-5.5,0,0,0,0,0
2.097,-6.25,0,0,0,0,0
2.098,-6.3125,0,0,0,0,0
2.099,-7.3125,0,0,0,0,0
2.1,-6.3125,0,0,0,0,0
2.101,-6.25,0,0,0,0,0
2.102,-5.625,0,0,0,0,0
2.103,-5.75,0,0,0,0,0
2.104,-5.875,0,0,0,0,0
2.105,-5.75,0,0,0,0,0
2.106,-5.375,0,0,0,0,0
2.107,-4.8125,0,0,0,0,0
2.108,-4.625,0,0,0,0,0
2.109,-4.8125,0,0,0,0,0
2.11,-5.3125,0,0,0,0,0
2.111,-5.75,0,0,0,0,0
2.112,-5.8125,0,0,0,0,0
2.113,-5.125,0,0,0,0,0
2.114,-4.9375,0,0,0,0,0
2.115,-4.8125,0,0,0,0,0
2.116,-5.125,0,0,0,0,0
2.117,-5.4375,0,0,0,0,0
2.118,-5.75,0,0,0,0,0
2.119,-6.0625,0,0,0,0,0
2.12,-6.25,0,0,0,0,0
2.121,-6.0625,0,0,0,0,0
2.122,-6,0,0,0,0,0
2.123,-5.9375,0,0,0,0,0
2.124,-5.625,0,0,0,0,0
2.125,-5.125,0,0,0,0,0
2.126,-4.625,0,0,0,0,0
2.127,-4.1875,0,0,0,0,0
2.128,-4.875,0,0,0,0,0
2.129,-5.3125,0,0,0,0,0
2.13,-5.4375,0,0,0,0,0
2.131,-5.625,0,0,0,0,0
2.132,-5.6875,0,0,0,0,0
2.133,-5.75,0,0,0,0,0
2.134,-5.625,0,0,0,0,0
2.135,-5.3125,0,0,0,0,0
2.136,-5.5625,0,0,0,0,0
2.137,-5.4375,0,0,0,0,0
2.138,-5.625,0,0,0,0,0
2.139,-5.9375,0,0,0,0,0
2.14,-5.875,0,0,0,0,0
2.141,-5.9375,0,0,0,0,0
2.142,-6.125,0,0,0,0,0
2.143,-5.4375,0,0,0,0,0
2.144,-5.125,0,0,0,0,0
2.145,-5.125,0,0,0,0,0
2.146,-5.5625,0,0,0,0,0
2.147,-5.75,0,0,0,0,0
2.148,-5.6875,0,0,0,0,0
2.149,-6.0625,0,0,0,0,0
2.15,-6.5625,0,0,0,0,0
2.151,-6.25,0,0,0,0,0
2.152,-5.875,0,0,0,0,0
2.153,-5.625,0,0,0,0,0
2.154,-5.6875,0,0,0,0,0
2.155,-5.625,0,0,0,0,0
2.156,-5.5,0,0,0,0,0
2.157,-5.9375,0,0,0,0,0
2.158,-5.75,0,0,0,0,0
2.159,-5.625,0,0,0,0,0
2.16,-5.375,0,0,0,0,0
2.161,-5.9375,0,0,0,0,0
2.162,-6.0625,0,0,0,0,0
2.163,-6.0625,0,0,0,0,0
2.164,-6.0625,0,0,0,0,0
2.165,-6.0625,0,0,0,0,0
2.166,-5.6875,0,0,0,0,0
2.167,-5.625,0,0,0,0,0
2.168,-5.375,0,0,0,0,0
2.169,-5.125,0,0,0,0,0
2.17,-5.25,0,0,0,0,0
2.171,-5,0,0,0,0,0
2.172,-5,0,0,0,0,0
2.173,-5.125,0,0,0,0,0
2.174,-6.0625,0,0,0,0,0
2.175,-6.375,0,0,0,0,0
2.176,-5.9375,0,0,0,0,0
2.177,-5.75,0,0,0,0,0
2.178,-6.375,0,0,0,0,0
2.179,-5.9375,0,0,0,0,0
2.18,-6.0625,0,0,0,0,0
2.181,-6.0625,0,0,0,0,0
2.182,-6.5,0,0,0,0,0
2.183,-7,0,0,0,0,0
2.184,-6.8125,0,0,0,0,0
2.185,-6.375,0,0,0,0,0
2.186,-5.875,0,0,0,0,0
2.187,-5,0,0,0,0,0
2.188,-5.6875,0,0,0,0,0
2.189,-5.9375,0,0,0,0,0
2.19,-6.0625,0,0,0,0,0
2.191,-6.0625,0,0,0,0,0
2.192,-6.5,0,0,0,0,0
2.193,-6.0625,0,0,0,0,0
2.194,-6.1875,0,0,0,0,0
2.195,-5.75,0,0,0,0,0
2.196,-6.0625,0,0,0,0,0
2.197,-6.5625,0,0,0,0,0
2.198,-6.1875,0,0,0,0,0
2.199,-6.375,0,0,0,0,0
2.2,-6,0,0,0,0,0
2.201,-5.4375,0,0,0,0,0
2.202,-6,0,0,0,0,0
2.203,-6.5625,0,0,0,0,0
2.204,-6.75,0,0,0,0,0
2.205,-7,0,0,0,0,0
2.206,-6.875,0,0,0,0,0
2.207,-6.6875,0,0,0,0,0
2.208,-6.3125,0,0,0,0,0
2.209,-5.75,0,0,0,0,0
2.21,-5.5625,0,0,0,0,0
2.211,-5.75,0,0,0,0,0
2.212,-5.75,0,0,0,0,0
2.213,-5.75,0,0,0,0,0
2.214,-6.375,0,0,0,0,0
2.215,-6.6875,0,0,0,0,0
2.216,-6.5,0,0,0,0,0
2.217,-6.6875,0,0,0,0,0
2.218,-7,0,0,0,0,0
2.219,-6.875,0,0,0,0,0
2.22,-6.75,0,0,0,0,0
2.221,-6.5625,0,0,0,0,0
2.222,-6.625,0,0,0,0,0
2.223,-6.875,0,0,0,0,0
2.224,-7.125,0,0,0,0,0
2.225,-7.1875,0,0,0,0,0
2.226,-7.5625,0,0,0,0,0
2.227,-8.125,0,0,0,0,0
2.228,-7.4375,0,0,0,0,0
2.229,-6.5625,0,0,0,0,0
2.23,-6.375,0,0,0,0,0
2.231,-6.0625,0,0,0,0,0
2.232,-6.3125,0,0,0,0,0
2.233,-6.375,0,0,0,0,0
2.234,-7.375,0,0,0,0,0
2.235,-7.9375,0,0,0,0,0
2.236,-7.75,0,0,0,0,0
2.237,-8.25,0,0,0,0,0
2.238,-8.875,0,0,0,0,0
2.239,-9.5,0,0,0,0,0
2.24,-9.625,0,0,0,0,0
2.241,-10,0,0,0,0,0
2.242,-9.625,0,0,0,0,0
2.243,-9.375,0,0,0,0,0
2.244,-9.8125,0,0,0,0,0
2.245,-10,0,0,0,0,0
2.246,-10.063,0,0,0,0,0
2.247,-9.6875,0,0,0,0,0
2.248,-9.625,0,0,0,0,0
2.249,-9.375,0,0,0,0,0
2.25,-9.375,0,0,0,0,0
2.251,-9.1875,0,0,0,0,0
2.252,-8.25,0,0,0,0,0
2.253,-7.625,0,0,0,0,0
2.254,-8.25,0,0,0,0,0
2.255,-8.875,0,0,0,0,0
2.256,-8.875,0,0,0,0,0
2.257,-8.75,0,0,0,0,0
2.258,-9.5625,0,0,0,0,0
2.259,-10.625,0,0,0,0,0
2.26,-10.125,0,0,0,0,0
2.261,-10.75,0,0,0,0,0
2.262,-10.5,0,0,0,0,0
2.263,-10.313,0,0,0,0,0
2.264,-9.9375,0,0,0,0,0
2.265,-10,0,0,0,0,0
2.266,-9.6875,0,0,0,0,0
2.267,-9.6875,0,0,0,0,0
2.268,-10.563,0,0,0,0,0
2.269,-10.75,0,0,0,0,0
2.27,-11,0,0,0,0,0
2.271,-11.375,0,0,0,0,0
2.272,-11.375,0,0,0,0,0
2.273,-11.25,0,0,0,0,0
2.274,-11,0,0,0,0,0
2.275,-10.438,0,0,0,0,0
2.276,-10.813,0,0,0,0,0
2.277,-11.375,0,0,0,0,0
2.278,-11,0,0,0,0,0
2.279,-10.75,0,0,0,0,0
2.28,-10.375,0,0,0,0,0
2.281,-10.313,0,0,0,0,0
2.282,-9.8125,0,0,0,0,0
2.283,-9.375,0,0,0,1,0
2.284,-9.5,0,0,0,0,0
2.285,-9.1875,0,0,0,0,0
2.286,-9.75,0,0,0,0,0
2.287,-10,0,0,0,0,0
2.288,-10.188,0,0,0,0,0
2.289,-10.313,0,0,0,0,0
2.29,-10.125,0,0,0,0,0
2.291,-10.313,0,0,0,0,0
2.292,-10.688,0,0,0,0,0
2.293,-10.313,0,0,0,0,0
2.294,-10.188,0,0,0,0,0
2.295,-9.6875,0,0,0,0,0
2.296,-9.3125,0,0,0,0,0
2.297,-8.5625,0,0,0,0,0
2.298,-8.75,0,0,0,0,0
2.299,-8.75,0,0,0,0,0
2.3,-8.625,0,0,0,0,0
2.301,-8.875,0,0,0,0,0
2.302,-9,0,0,0,0,0
2.303,-9.375,0,0,0,0,0
2.304,-9.3125,0,0,0,0,0
2.305,-9.375,0,0,0,0,0
2.306,-9.25,0,0,0,0,0
2.307,-9.0625,0,0,0,0,0
2.308,-8.8125,0,0,0,0,0
2.309,-8.875,0,0,0,0,0
2.31,-8.6875,0,0,0,0,0
2.311,-8.25,0,0,0,0,0
2.312,-8.125,0,0,0,0,0
2.313,-8.125,0,0,0,0,0
2.314,-8,0,0,0,0,0
2.315,-8.125,0,0,0,0,0
2.316,-7.75,0,0,0,0,0
2.317,-7.1875,0,0,0,0,0
2.318,-7.125,0,0,0,0,0
2.319,-7.1875,0,0,0,0,0
2.32,-7.875,0,0,0,0,0
2.321,-7.9375,0,0,0,0,0
2.322,-7.4375,0,0,0,0,0
2.323,-7.1875,0,0,0,0,0
2.324,-7.1875,0,0,0,0,0
2.325,-6.875,0,0,0,0,0
2.326,-6.3125,0,0,0,0,0
2.327,-5.625,0,0,0,0,0
2.328,-5.1875,0,0,0,0,0
2.329,-4.375,0,0,0,0,0
2.33,-4.0625,0,0,0,0,0
2.331,-3.25,0,0,0,0,0
2.332,-3.5,0,0,0,0,0
2.333,-3.75,0,0,0,0,0
2.334,-4.5,0,0,0,0,0
2.335,-4.6875,0,0,0,0,0
2.336,-5.125,0,0,0,0,0
2.337,-6.0625,0,0,0,0,0
2.338,-6.0625,0,0,0,0,0
2.339,-6.25,0,0,0,0,0
2.34,-6.5625,0,0,0,0,0
2.341,-7,0,0,0,0,0
2.342,-6.1875,0,0,0,0,0
2.343,-5.4375,0,0,0,0,0
2.344,-5.6875,0,0,0,0,0
2.345,-5.125,0,0,0,0,0
2.346,-5.125,0,0,0,0,0
2.347,-5.125,0,0,0,0,0
2.348,-5.125,0,0,0,0,0
2.349,-5.4375,0,0,0,0,0
2.35,-5.5625,0,0,0,0,0
2.351,-5.75,0,0,0,0,0
2.352,-5.75,0,0,0,0,0
2.353,-5.125,0,0,0,0,0
2.354,-5,0,0,0,0,0
2.355,-4.6875,0,0,0,0,0
2.356,-4.75,0,0,0,0,0
2.357,-4.6875,0,0,0,0,0
2.358,-4.75,0,0,0,0,0
2.359,-4.6875,0,0,0,0,0
2.36,-4.4375,0,0,0,0,0
2.361,-4.375,0,0,0,0,1
2.362,-4.1875,0,0,0,0,0
2.363,-4.1875,0,0,0,0,0
2.364,-4.0625,0,0,0,0,0
2.365,-4.375,0,0,0,0,0
2.366,-4.25,0,0,0,0,0
2.367,-3.75,0,0,0,0,0
2.368,-4.125,0,0,0,0,0
2.369,-4.5,0,0,0,0,0
2.37,-4.5,0,0,0,0,0
2.371,-4.0625,0,0,0,0,0
2.372,-4.125,0,0,0,0,0
2.373,-3.75,0,0,0,0,0
2.374,-4.4375,0,0,0,0,0
2.375,-5,0,0,0,0,0
2.376,-4.3125,0,0,0,0,0
2.377,-3.875,0,0,0,0,0
2.378,-3.0625,0,0,0,0,0
2.379,-2.8125,0,0,0,0,0
2.38,-2.9375,0,0,0,0,0
2.381,-2.625,0,0,0,0,0
2.382,-2.75,0,0,0,0,0
2.383,-2.5,0,0,0,0,0
2.384,-2.875,0,0,0,0,0
2.385,-2.8125,0,0,0,0,0
2.386,-3.5625,0,0,0,0,0
2.387,-4.1875,0,0,0,0,0
2.388,-4.375,0,0,0,0,0
2.389,-3.75,0,0,0,0,0
2.39,-3.4375,0,0,0,0,0
2.391,-3.5625,0,0,0,0,0
2.392,-3.8125,0,0,0,0,0
2.393,-4.375,0,0,0,0,0
2.394,-4.1875,0,0,0,0,0
2.395,-3.4375,0,0,0,0,0
2.396,-2.9375,0,0,0,0,0
2.397,-3.25,0,0,0,0,0
2.398,-3.4375,0,0,0,0,0
2.399,-3.25,0,0,0,0,0
2.4,-2.9375,0,0,0,0,0
2.401,-3.4375,0,0,0,0,0
2.402,-3.1875,0,0,0,0,0
2.403,-3.25,0,0,0,0,0
2.404,-3.25,0,0,0,0,0
2.405,-2.9375,0,0,0,0,0
2.406,-3.1875,0,0,0,0,0
2.407,-3.4375,0,0,0,0,0
2.408,-3.75,0,0,0,0,0
2.409,-3.75,0,0,0,0,0
2.41,-3.375,0,0,0,0,0
2.411,-3.125,0,0,0,0,0
2.412,-3.625,0,0,0,0,0
2.413,-3.875,0,0,0,0,0
2.414,-4.3125,0,0,0,0,0
2.415,-5,0,0,0,0,0
2.416,-4.5625,0,0,0,0,0
2.417,-4.5,0,0,0,0,0
2.418,-4.125,0,0,0,0,0
2.419,-3.5625,0,0,0,0,0
2.42,-3.9375,0,0,0,0,0
2.421,-4.1875,0,0,0,0,0
2.422,-3.625,0,0,0,0,0
2.423,-3.25,0,0,0,0,0
2.424,-3.5,0,0,0,0,0
2.425,-3.5625,0,0,0,0,0
2.426,-3.625,0,0,0,0,0
2.427,-3.4375,0,0,0,0,0
2.428,-3.125,0,0,0,0,0
2.429,-2.9375,0,0,0,0,0
2.43,-2.625,0,0,0,0,0
2.431,-2.9375,0,0,0,0,0
2.432,-3.25,0,0,0,0,0
2.433,-3.4375,0,0,0,0,0
2.434,-3.1875,0,0,0,0,0
2.435,-2.9375,0,0,0,0,0
2.436,-3.3125,0,0,0,0,0
2.437,-4.0625,0,0,0,0,0
2.438,-4.3125,0,0,0,0,0
2.439,-4.1875,0,0,0,0,0
2.44,-4.0625,0,0,0,0,0
2.441,-3.875,0,0,0,0,0
2.442,-3.8125,0,0,0,0,0
2.443,-3.875,0,0,0,0,0
2.444,-3.5625,0,0,0,0,0
2.445,-3.5625,0,0,0,0,0
2.446,-3.5,0,0,0,0,0
2.447,-3.4375,0,0,0,0,0
2.448,-3.5,0,0,0,0,0
2.449,-3.25,0,0,0,0,0
2.45,-3.4375,0,0,0,0,0
2.451,-3.25,0,0,0,0,0
2.452,-3.75,0,0,0,0,0
2.453,-3.5625,0,0,0,0,0
2.454,-3.75,0,0,0,0,0
2.455,-3.75,0,0,0,0,0
2.456,-3,0,0,0,0,0
2.457,-2.625,0,0,0,0,0
2.458,-3.0625,0,0,0,0,0
2.459,-3.4375,0,0,0,0,0
2.46,-4.125,0,0,0,0,0
2.461,-4.5,0,0,0,0,0
2.462,-4.875,0,0,0,0,0
2.463,-5.4375,0,0,0,0,0
2.464,-5.25,0,0,0,0,0
2.465,-4.8125,0,0,0,0,0
2.466,-4.3125,0,0,0,0,0
2.467,-3.875,0,0,0,0,0
2.468,-3.5,0,0,0,0,0
2.469,-3.5625,0,0,0,0,0
2.47,-3.5,0,0,0,0,0
2.471,-3.4375,0,0,0,0,0
2.472,-3.1875,0,0,0,0,0
2.473,-3.125,0,0,0,0,0
2.474,-3.5625,0,0,0,0,0
2.475,-3.4375,0,0,0,0,0
2.476,-3.1875,0,0,0,0,0
2.477,-3.4375,0,0,0,0,0
2.478,-3.25,0,0,0,0,0
2.479,-3.25,0,0,0,0,0
2.48,-3,0,0,0,0,0
2.481,-3.125,0,0,0,0,0
2.482,-2.875,0,0,0,0,0
2.483,-2.8125,0,0,0,0,0
2.484,-3.5625,0,0,0,0,0
2.485,-3.4375,0,0,0,0,0
2.486,-3,0,0,0,0,0
2.487,-2.8125,0,0,0,0,0
2.488,-2.4375,0,0,0,0,0
2.489,-2.1875,0,0,0,0,0
2.49,-2.1875,0,0,0,0,0
2.491,-2,0,0,0,0,0
2.492,-2.0625,0,0,0,0,0
2.493,-1.875,0,0,0,0,0
2.494,-2.1875,0,0,0,0,0
2.495,-3.125,0,0,0,0,0
2.496,-3.0625,0,0,0,0,0
2.497,-2.3125,0,0,0,0,0
2.498,-2.375,0,0,0,0,0
2.499,-1.375,0,0,0,0,0
2.5,-1.1875,0,0,0,0,0
2.501,-1.25,0,0,0,0,0
2.502,-1.1875,0,0,0,0,0
2.503,-1.25,0,0,0,0,0
2.504,-1.5625,0,0,0,0,0
2.505,-1.5625,0,0,0,0,0
2.506,-2.0625,0,0,0,0,0
2.507,-1.875,0,0,0,0,0
2.508,-1.9375,0,0,0,0,0
2.509,-2,0,0,0,0,0
2.51,-2,0,0,0,0,0
2.511,-2.9375,0,0,0,0,0
2.512,-3.125,0,0,0,0,0
2.513,-3.125,0,0,0,0,0
2.514,-3.5625,0,0,0,0,0
2.515,-2.9375,0,0,0,0,0
2.516,-3.125,0,0,0,0,0
2.517,-3.4375,0,0,0,0,0
2.518,-3.5625,0,0,0,0,0
2.519,-3.875,0,0,0,0,0
2.52,-4.25,0,0,0,0,0
2.521,-4.8125,0,0,0,0,0
2.522,-5,0,0,0,0,0
2.523,-4.8125,0,0,0,0,0
2.524,-4.75,0,0,0,0,0
2.525,-5.3125,0,0,0,0,0
2.526,-5.3125,0,0,0,0,0
2.527,-4.6875,0,0,0,0,0
2.528,-4.375,0,0,0,0,0
2.529,-4.1875,0,0,0,0,0
2.53,-4.875,0,0,0,0,0
2.531,-5.625,0,0,0,0,0
2.532,-6.0625,0,0,0,0,0
2.533,-5.9375,0,0,0,0,0
2.534,-5.9375,0,0,0,0,0
2.535,-6.0625,0,0,0,0,0
2.536,-5.9375,0,0,0,0,0
2.537,-5.75,0,0,0,0,0
2.538,-5.8125,0,0,0,0,0
2.539,-5.9375,0,0,0,0,0
2.54,-5.875,0,0,0,0,0
2.541,-5.75,0,0,0,0,0
2.542,-6,0,0,0,0,0
2.543,-6.25,0,0,0,0,0
2.544,-6.3125,0,0,0,0,0
2.545,-6.375,0,0,0,0,0
2.546,-5.875,0,0,0,0,0
2.547,-5.3125,0,0,0,0,0
2.548,-5.4375,0,0,0,0,0
2.549,-5.625,0,0,0,0,0
2.55,-6.0625,0,0,0,0,0
2.551,-6.5625,0,0,0,0,0
2.552,-6.9375,0,0,0,0,0
2.553,-7.3125,0,0,0,0,0
2.554,-7.1875,0,0,0,0,0
2.555,-7,0,0,0,0,0
2.556,-7,0,0,0,0,0
2.557,-7,0,0,0,0,0
2.558,-6.9375,0,0,0,0,0
2.559,-6.875,0,0,0,0,0
2.56,-7.4375,0,0,0,0,0
2.561,-7.9375,0,0,0,0,0
2.562,-8,0,0,0,0,0
2.563,-8.125,0,0,0,0,0
2.564,-7.8125,0,0,0,0,0
2.565,-7.5,0,0,0,0,0
2.566,-7.25,0,0,0,0,0
2.567,-7,0,0,0,0,0
2.568,-6.875,0,0,0,0,0
2.569,-6.6875,0,0,0,0,0
2.57,-6.25,0,0,0,0,0
2.571,-5.75,0,0,0,0,0
2.572,-5.75,0,0,0,0,0
2.573,-5.75,0,0,0,0,0
2.574,-6.3125,0,0,0,0,0
2.575,-6.875,0,0,0,0,0
2.576,-7.1875,0,0,0,0,0
2.577,-7.5,0,0,0,0,0
2.578,-7.1875,0,0,0,0,0
2.579,-6.875,0,0,0,0,0
2.58,-6.625,0,0,0,0,0
2.581,-6.375,0,0,0,0,0
2.582,-6.625,0,0,0,0,0
2.583,-6.875,0,0,0,0,0
2.584,-7.125,0,0,0,0,0
2.585,-7.3125,0,0,0,0,0
2.586,-6.8125,0,0,0,0,0
2.587,-6.25,0,0,0,0,0
2.588,-5.9375,0,0,0,0,0
2.589,-5.625,0,0,0,0,0
2.59,-5.5625,0,0,0,0,0
2.591,-5.4375,0,0,0,0,0
2.592,-5.0625,0,0,0,0,0
2.593,-4.6875,0,0,0,0,0
2.594,-4.5,0,0,0,0,0
2.595,-4.375,0,0,0,0,0
2.596,-3.75,0,0,0,0,0
2.597,-3.125,0,0,0,0,0
2.598,-2.25,0,0,0,0,0
2.599,-1.375,0,0,0,0,0
2.6,-1.5625,0,0,0,0,0
2.601,-1.6875,0,0,0,0,0
2.602,-2.6875,0,0,0,0,0
2.603,-3.75,0,0,0,0,0
2.604,-4.25,0,0,0,0,0
2.605,-4.8125,0,0,0,0,0
2.606,-4.75,0,0,0,0,0
2.607,-4.6875,0,0,0,0,0
2.608,-4.0625,0,0,0,0,0
2.609,-3.4375,0,0,0,0,0
2.61,-3.0625,0,0,0,0,0
2.611,-2.625,0,0,0,0,0
2.612,-2.625,0,0,0,0,0
2.613,-2.625,0,0,0,0,0
2.614,-2.9375,0,0,0,0,0
2.615,-3.25,0,0,0,0,0
2.616,-2.6875,0,0,0,0,0
2.617,-2,0,0,0,0,0
2.618,-2,0,0,0,0,0
2.619,-2,0,0,0,0,0
2.62,-2,0,0,0,0,0
2.621,-2,0,0,0,0,0
2.622,-1.5625,0,0,0,0,0
2.623,-1.0625,0,0,0,0,0
2.624,-0.875,0,0,0,0,0
2.625,-0.625,0,0,0,0,0
2.626,-0.5625,0,0,0,0,0
2.627,-0.4375,0,0,0,0,0
2.628,-1.25,0,0,0,0,0
2.629,-2,0,0,0,0,0
2.63,-2,0,0,0,0,0
2.631,-2,0,0,0,0,0
2.632,-2,0,0,0,0,0
2.633,-2,0,0,0,0,0
2.634,-1.5,0,0,0,0,0
2.635,-0.9375,0,0,0,0,0
2.636,-0.5625,0,0,0,0,0
2.637,-0.125,0,0,0,0,0
2.638,-0.125,0,0,0,0,0
2.639,-0.125,0,0,0,0,0
2.64,-0.3125,0,0,0,0,0
2.641,-0.4375,0,0,0,0,0
2.642,-0.4375,0,0,0,0,0
2.643,-0.4375,0,0,0,0,0
2.644,-0.4375,0,0,0,0,0
2.645,-0.4375,0,0,0,0,0
2.646,-0.5,0,0,0,0,0
2.647,-0.625,0,0,0,0,0
2.648,-0.625,0,0,0,0,0
2.649,-0.625,0,0,0,0,0
2.65,-0.6875,0,0,0,0,0
2.651,-0.75,0,0,0,0,0
2.652,-0.75,0,0,0,0,0
2.653,-0.75,0,0,0,0,0
2.654,-0.5625,0,0,0,0,0
2.655,-0.3125,0,0,0,0,0
2.656,-0.75,0,0,0,0,0
2.657,-1.25,0,0,0,0,0
2.658,-1.25,0,0,0,0,0
2.659,-1.25,0,0,0,0,0
2.66,-1.25,0,0,0,0,0
2.661,-1.25,0,0,0,0,0
2.662,-1,0,0,0,0,0
2.663,-0.75,0,0,0,0,0
2.664,-0.4375,0,0,0,0,0
2.665,-0.125,0,0,0,0,0
2.666,0.0625,0,0,0,0,0
2.667,0.3125,0,0,0,0,0
2.668,0.0625,0,0,0,0,0
2.669,-0.3125,0,0,0,0,0
2.67,-0.25,0,0,0,0,0
2.671,-0.125,0,0,0,0,0
2.672,-0.4375,0,0,0,0,0
2.673,-0.75,0,0,0,0,0
2.674,-0.6875,0,0,0,0,0
2.675,-0.625,0,0,0,0,0
2.676,-0.375,0,0,0,0,0
2.677,-0.125,0,0,0,0,0
2.678,-0.1875,0,0,0,0,0
2.679,-0.3125,0,0,0,0,0
2.68,-0.375,0,0,0,0,0
2.681,-0.4375,0,0,0,0,0
2.682,-0.4375,0,0,0,0,0
2.683,-0.4375,0,0,0,0,0
2.684,-1,0,0,0,0,0
2.685,-1.5625,0,0,0,0,0
2.686,-2,0,0,0,0,0
2.687,-2.5,0,0,0,0,0
2.688,-2.125,0,0,0,0,0
2.689,-1.6875,0,0,0,0,0
2.69,-1.8125,0,0,0,0,0
2.691,-1.875,0,0,0,0,0
2.692,-1.4375,0,0,0,0,0
2.693,-0.9375,0,0,0,0,0
2.694,-0.9375,0,0,0,0,0
2.695,-0.9375,0,0,0,0,0
2.696,-1.3125,0,0,0,0,0
2.697,-1.6875,0,0,0,0,0
2.698,-1.625,0,0,0,0,0
2.699,-1.5625,0,0,0,0,0
2.7,-1.375,0,0,0,0,0
2.701,-1.25,0,0,0,0,0
2.702,-0.8125,0,0,0,0,0
2.703,-0.3125,0,0,0,0,0
2.704,-0.3125,1,0,0,0,0
2.705,-0.3125,0,0,0,0,0
2.706,-0.1875,0,0,0,0,0
2.707,0,0,0,0,0,0
2.708,-0.6875,0,0,0,0,0
2.709,-1.375,0,0,0,0,0
2.71,-2,0,0,0,0,0
2.711,-2.625,0,0,0,0,0
2.712,-3.3125,0,0,0,0,0
2.713,-4.0625,0,0,0,0,0
2.714,-3.6875,0,0,0,0,0
2.715,-3.25,0,0,0,0,0
2.716,-4.5,0,0,0,0,0
2.717,-5.75,0,0,0,0,0
2.718,-6.3125,0,0,0,0,0
2.719,-6.875,0,0,0,0,0
2.72,-7.5625,0,0,0,0,0
2.721,-8.25,0,0,0,0,0
2.722,-9.625,0,0,0,0,0
2.723,-11.063,0,0,0,0,0
2.724,-12.625,0,0,0,0,0
2.725,-14.188,0,0,0,0,0
2.726,-15.5,0,0,0,0,0
2.727,-16.875,0,0,0,0,0
2.728,-19.5,0,0,0,0,0
2.729,-22.188,0,0,0,0,0
2.73,-24.125,0,0,0,0,0
2.731,-26.063,0,0,0,0,0
2.732,-27.25,0,0,0,0,0
2.733,-28.438,0,0,0,0,0
2.734,-29.063,0,0,0,0,0
2.735,-29.688,0,0,0,0,0
2.736,-30.5,0,0,0,0,0
2.737,-31.375,0,1,0,0,0
2.738,-31.625,0,0,0,0,0
2.739,-31.875,0,0,0,0,0
2.74,-31.938,0,0,0,0,0
2.741,-32,0,0,0,0,0
2.742,-31.375,0,0,0,0,0
2.743,-30.75,0,0,0,0,0
2.744,-29.625,0,0,0,0,0
2.745,-28.438,0,0,0,0,0
2.746,-25.625,0,0,0,0,0
2.747,-22.813,0,0,0,0,0
2.748,-18.625,0,0,0,0,0
2.749,-14.375,0,0,0,0,0
2.75,-10.813,0,0,0,0,0
2.751,-7.1875,0,0,0,0,0
2.752,-4.3125,0,0,0,0,0
2.753,-1.375,0,0,0,0,0
2.754,0.875,0,0,0,0,0
2.755,3.125,0,0,0,0,0
2.756,3.9375,0,0,0,0,0
2.757,4.6875,0,0,0,0,0
2.758,4.6875,0,0,0,0,0
2.759,4.6875,0,0,0,0,0
2.76,5.0625,0,0,0,0,0
2.761,5.5,0,0,0,0,0
2.762,6.5625,0,0,0,0,0
2.763,7.6875,0,0,0,0,0
2.764,7.6875,0,0,0,0,0
2.765,7.6875,0,0,0,0,0
2.766,7.8125,0,0,0,0,0
2.767,8,0,0,0,0,0
2.768,7.8125,0,0,0,0,0
2.769,7.6875,0,0,0,0,0
2.77,7.4375,0,0,0,0,0
2.771,7.1875,0,0,0,0,0
2.772,6.5625,0,0,0,0,0
2.773,5.9375,0,0,0,0,0
2.774,5.3125,0,0,0,0,0
2.775,4.6875,0,0,0,0,0
2.776,5.3125,0,0,0,0,0
2.777,5.9375,0,0,0,0,0
2.778,5.875,0,0,0,0,0
2.779,5.8125,0,0,0,0,0
2.78,5.5,0,0,0,0,0
2.781,5.1875,0,0,0,0,0
2.782,5.5625,0,0,0,0,0
2.783,5.9375,0,0,0,0,0
2.784,5.9375,0,0,0,0,0
2.785,5.9375,0,0,0,0,0
2.786,6.375,0,0,0,0,0
2.787,6.75,0,0,0,0,0
2.788,6.625,0,0,0,0,0
2.789,6.5625,0,0,0,0,0
2.79,5.9375,0,0,0,0,0
2.791,5.3125,0,0,0,0,0
2.792,4.5,0,0,0,0,0
2.793,3.625,0,0,0,0,0
2.794,3.6875,0,0,0,0,0
2.795,3.75,0,0,0,0,0
2.796,4.125,0,0,0,0,0
2.797,4.5625,0,0,0,0,0
2.798,5.125,0,0,0,0,0
2.799,5.8125,0,0,0,0,0
2.8,6.3125,0,0,0,0,0
2.801,6.875,0,0,0,0,0
2.802,8.0625,0,0,0,0,0
2.803,9.25,0,0,0,0,0
2.804,8.625,0,0,0,0,0
2.805,8,0,0,0,0,0
2.806,8.1875,0,0,0,0,0
2.807,8.4375,0,0,0,0,0
2.808,8.5625,0,0,0,0,0
2.809,8.75,0,0,0,0,0
2.81,8.25,0,0,0,0,0
2.811,7.6875,0,0,0,0,0
2.812,7.375,0,0,0,0,0
2.813,7.0625,0,0,0,0,0
2.814,7.25,0,0,0,0,0
2.815,7.5,0,0,0,0,0
2.816,7.9375,0,0,0,0,0
2.817,8.4375,0,0,0,0,0
2.818,8.1875,0,0,0,0,0
2.819,7.8125,0,0,0,0,0
2.82,7.625,0,0,0,0,0
2.821,7.375,0,0,0,0,0
2.822,7.4375,0,0,0,0,0
2.823,7.5,0,0,0,0,0
2.824,7.875,0,0,0,0,0
2.825,8.3125,0,0,0,0,0
2.826,8.375,0,0,0,0,0
2.827,8.4375,0,0,0,0,0
2.828,8.1875,0,0,0,0,0
2.829,8,0,0,0,0,0
2.83,7.5,0,0,0,0,0
2.831,7.0625,0,0,0,0,0
2.832,6.5,0,0,0,0,0
2.833,5.9375,0,0,0,0,0
2.834,5.5625,0,0,0,0,0
2.835,5.1875,0,0,0,0,0
2.836,4.25,0,0,0,0,0
2.837,3.3125,0,0,0,0,0
2.838,3.1875,0,0,0,0,0
2.839,3,0,0,0,0,0
2.84,3.125,0,0,0,0,0
2.841,3.3125,0,0,0,0,0
2.842,3.5,0,0,0,0,0
2.843,3.75,0,0,0,0,0
2.844,3.5,0,0,0,0,0
2.845,3.125,0,0,0,0,0
2.846,3.0625,0,0,0,0,0
2.847,3,0,0,0,0,0
2.848,3.0625,0,0,0,0,0
2.849,3.125,0,0,0,0,0
2.85,3.25,0,0,0,0,0
2.851,3.4375,0,0,0,0,0
2.852,2.875,0,0,0,0,0
2.853,2.375,0,0,0,0,0
2.854,1.375,0,0,0,0,0
2.855,0.3125,0,0,0,0,0
2.856,0,0,0,0,0,0
2.857,-0.3125,0,0,0,0,0
2.858,-0.375,0,0,0,0,0
2.859,-0.4375,0,0,0,0,0
2.86,-1.4375,0,0,0,0,0
2.861,-2.5,0,0,0,0,0
2.862,-2.75,0,0,0,0,0
2.863,-3.125,0,0,0,0,0
2.864,-3.0625,0,0,0,0,0
2.865,-2.9375,0,0,0,0,0
2.866,-3.125,0,0,0,0,0
2.867,-3.25,0,0,0,0,0
2.868,-3,0,0,0,0,0
2.869,-2.625,0,0,0,0,0
2.87,-2.5625,0,0,0,0,0
2.871,-2.5,0,0,0,0,0
2.872,-2.5625,0,0,0,0,0
2.873,-2.625,0,0,0,0,0
2.874,-2.9375,0,0,0,0,0
2.875,-3.25,0,0,0,0,0
2.876,-3.25,0,0,0,0,0
2.877,-3.25,0,0,0,0,0
2.878,-2.875,0,0,0,0,0
2.879,-2.5,0,0,1,0,0
2.88,-2.25,0,0,0,0,0
2.881,-2,0,0,0,0,0
2.882,-2.3125,0,0,0,0,0
2.883,-2.625,0,0,0,0,0
2.884,-2.875,0,0,0,0,0
2.885,-3.125,0,0,0,0,0
2.886,-3.125,0,0,0,0,0
2.887,-3.125,0,0,0,0,0
2.888,-3.375,0,0,0,0,0
2.889,-3.75,0,0,0,0,0
2.89,-3.875,0,0,0,0,0
2.891,-4.0625,0,0,0,0,0
2.892,-3.8125,0,0,0,0,0
2.893,-3.5625,0,0,0,0,0
2.894,-3.4375,0,0,0,0,0
2.895,-3.25,0,0,0,0,0
2.896,-3.125,0,0,0,0,0
2.897,-2.9375,0,0,0,0,0
2.898,-2.625,0,0,0,0,0
2.899,-2.3125,0,0,0,0,0
2.9,-2.375,0,0,0,0,0
2.901,-2.5,0,0,0,0,0
2.902,-2.1875,0,0,0,0,0
2.903,-1.875,0,0,0,0,0
2.904,-1.9375,0,0,0,0,0
2.905,-2,0,0,0,0,0
2.906,-2,0,0,0,0,0
2.907,-2,0,0,0,0,0
2.908,-1.9375,0,0,0,0,0
2.909,-1.875,0,0,0,0,0
2.91,-2.0625,0,0,0,0,0
2.911,-2.3125,0,0,0,0,0
2.912,-2.3125,0,0,0,0,0
2.913,-2.3125,0,0,0,0,0
2.914,-2.8125,0,0,0,0,0
2.915,-3.25,0,0,0,0,0
2.916,-3.625,0,0,0,0,0
2.917,-4.0625,0,0,0,0,0
2.918,-4.5,0,0,0,0,0
2.919,-5,0,0,0,0,0
2.92,-4.75,0,0,0,0,0
2.921,-4.5,0,0,0,0,0
2.922,-4.4375,0,0,0,0,0
2.923,-4.375,0,0,0,0,0
2.924,-4.5625,0,0,0,0,0
2.925,-4.8125,0,0,0,0,0
2.926,-5,0,0,0,0,0
2.927,-5.125,0,0,0,0,0
2.928,-5,0,0,0,0,0
2.929,-4.8125,0,0,0,0,0
2.93,-4.25,0,0,0,0,0
2.931,-3.5625,0,0,0,0,0
2.932,-3.5625,0,0,0,0,0
2.933,-3.5625,0,0,0,0,0
2.934,-3.4375,0,0,0,0,0
2.935,-3.25,0,0,0,0,0
2.936,-3.0625,0,0,0,0,0
2.937,-2.8125,0,0,0,0,0
2.938,-2.8125,0,0,0,0,0
2.939,-2.8125,0,0,0,0,0
2.94,-3.8125,0,0,0,0,0
2.941,-4.8125,0,0,0,0,0
2.942,-5.3125,0,0,0,0,0
2.943,-5.75,0,0,0,0,0
2.944,-5.375,0,0,0,0,0
2.945,-5,0,0,0,0,0
2.946,-4.4375,0,0,0,0,0
2.947,-3.875,0,0,0,0,0
2.948,-3.6875,0,0,0,0,0
2.949,-3.4375,0,0,0,0,0
2.95,-3.375,0,0,0,0,0
2.951,-3.25,0,0,0,0,0
2.952,-3.25,0,0,0,0,0
2.953,-3.25,0,0,0,0,0
2.954,-3.3125,0,0,0,0,0
2.955,-3.4375,0,0,0,0,0
2.956,-3.5,0,0,0,0,0
2.957,-3.5625,0,0,0,0,0
2.958,-2.875,0,0,0,0,0
2.959,-2.1875,0,0,0,0,0
2.96,-2.25,0,0,0,0,0
2.961,-2.3125,0,0,0,0,0
2.962,-2.4375,0,0,0,0,0
2.963,-2.5,0,0,0,0,0
2.964,-3,0,0,0,0,0
2.965,-3.5625,0,0,0,0,0
2.966,-3.75,0,0,0,0,0
2.967,-3.875,0,0,0,0,0
2.968,-3.875,0,0,0,0,0
2.969,-3.875,0,0,0,0,0
2.97,-3.875,0,0,0,0,0
2.971,-3.875,0,0,0,0,0
2.972,-3.9375,0,0,0,0,0
2.973,-4.0625,0,0,0,0,0
2.974,-4.25,0,0,0,0,0
2.975,-4.5,0,0,0,0,0
2.976,-4.9375,0,0,0,0,0
2.977,-5.4375,0,0,0,0,0
2.978,-5.375,0,0,0,0,0
2.979,-5.3125,0,0,0,0,0
2.98,-5.1875,0,0,0,0,0
2.981,-5,0,0,0,0,0
2.982,-4.8125,0,0,0,0,0
2.983,-4.6875,0,0,0,0,0
2.984,-4.625,0,0,0,0,0
2.985,-4.5,0,0,0,0,0
2.986,-4.4375,0,0,0,0,0
2.987,-4.375,0,0,0,0,0
2.988,-4.4375,0,0,0,0,0
2.989,-4.5,0,0,0,0,0
2.99,-4.375,0,0,0,0,0
2.991,-4.1875,0,0,0,0,0
2.992,-4.0625,0,0,0,0,0
2.993,-3.875,0,0,0,0,0
2.994,-4,0,0,0,0,0
2.995,-4.1875,0,0,0,0,0
2.996,-4.5625,0,0,0,0,0
2.997,-5,0,0,0,0,0
2.998,-5.0625,0,0,0,0,0
2.999,-5.125,0,0,0,0,0
3,-4.875,0,0,0,0,0
3.001,-4.5,0,0,0,0,0
3.002,-4.625,0,0,0,0,0
3.003,-4.6875,0,0,0,0,0
3.004,-4.75,0,0,0,0,0
3.005,-4.8125,0,0,0,0,0
3.006,-5.3125,0,0,0,0,0
3.007,-5.75,0,0,0,0,0
3.008,-5.75,0,0,0,0,0
3.009,-5.75,0,0,0,0,0
3.01,-5.5,0,0,0,0,0
3.011,-5.125,0,0,0,0,0
3.012,-4.5625,0,0,0,0,0
3.013,-3.875,0,0,0,0,0
3.014,-3.875,0,0,0,0,0
3.015,-3.875,0,0,0,0,0
3.016,-4.75,0,0,0,0,0
3.017,-5.625,0,0,0,0,0
3.018,-5.75,0,0,0,0,0
3.019,-5.9375,0,0,0,0,0
3.02,-6,0,0,0,0,0
3.021,-6.0625,0,0,0,0,0
3.022,-6.3125,0,0,0,0,0
3.023,-6.5625,0,0,0,0,0
3.024,-6.875,0,0,0,0,0
3.025,-7.1875,0,0,0,0,0
3.026,-8,0,0,0,0,0
3.027,-8.75,0,0,0,0,0
3.028,-8,0,0,0,0,0
3.029,-7.3125,0,0,0,0,0
3.03,-7.625,0,0,0,0,0
3.031,-7.8125,0,0,0,0,0
3.032,-7.625,0,0,0,0,0
3.033,-6.875,0,0,0,0,0
3.034,-6.5,0,0,0,0,0
3.035,-6.5625,0,0,0,0,0
3.036,-6.75,0,0,0,0,0
3.037,-7.5,0,0,0,0,0
3.038,-7.875,0,0,0,0,0
3.039,-7.8125,0,0,0,0,0
3.04,-8.4375,0,0,0,0,0
3.041,-8.125,0,0,0,0,0
3.042,-7.875,0,0,0,0,0
3.043,-7.9375,0,0,0,0,0
3.044,-8.5,0,0,0,0,0
3.045,-8.875,0,0,0,0,0
3.046,-9.1875,0,0,0,0,0
3.047,-8.875,0,0,0,0,0
3.048,-8.625,0,0,0,0,0
3.049,-8.5625,0,0,0,0,0
3.05,-8.875,0,0,0,0,0
3.051,-9.0625,0,0,0,0,0
3.052,-8.875,0,0,0,0,0
3.053,-8.75,0,0,0,0,0
3.054,-9,0,0,0,0,0
3.055,-8.5625,0,0,0,0,0
3.056,-8.75,0,0,0,0,0
3.057,-8.875,0,0,0,0,0
3.058,-8.9375,0,0,0,0,0
3.059,-9.0625,0,0,0,0,0
3.06,-8.5625,0,0,0,0,0
3.061,-8.125,0,0,0,0,0
3.062,-8.4375,0,0,0,0,0
3.063,-8.4375,0,0,0,0,0
3.064,-9,0,0,0,0,0
3.065,-9.375,0,0,0,0,0
3.066,-9.1875,0,0,0,0,0
3.067,-9.5,0,0,0,0,0
3.068,-9.6875,0,0,0,0,0
3.069,-9.5,0,0,0,0,0
3.07,-9.6875,0,0,0,0,0
3.071,-9.6875,0,0,0,0,0
3.072,-9.5625,0,0,0,0,0
3.073,-9.5,0,0,0,0,0
3.074,-9.875,0,0,0,0,0
3.075,-9.8125,0,0,0,0,0
3.076,-10.125,0,0,0,1,0
3.077,-10.125,0,0,0,0,0
3.078,-9.75,0,0,0,0,0
3.079,-9.375,0,0,0,0,0
3.08,-8.5,0,0,0,0,0
3.081,-7.9375,0,0,0,0,0
3.082,-8.1875,0,0,0,0,0
3.083,-8.125,0,0,0,0,0
3.084,-8.6875,0,0,0,0,0
3.085,-9.1875,0,0,0,0,0
3.086,-9.4375,0,0,0,0,0
3.087,-9.5,0,0,0,0,0
3.088,-9,0,0,0,0,0
3.089,-8.4375,0,0,0,0,0
3.09,-8.8125,0,0,0,0,0
3.091,-8.875,0,0,0,0,0
3.092,-8.375,0,0,0,0,0
3.093,-7.9375,0,0,0,0,0
3.094,-8.1875,0,0,0,0,0
3.095,-7.8125,0,0,0,0,0
3.096,-8.1875,0,0,0,0,0
3.097,-8.75,0,0,0,0,0
3.098,-8.4375,0,0,0,0,0
3.099,-8.125,0,0,0,0,0
3.1,-8.0625,0,0,0,0,0
3.101,-8.125,0,0,0,0,0
3.102,-7.9375,0,0,0,0,0
3.103,-7.5,0,0,0,0,0
3.104,-6.75,0,0,0,0,0
3.105,-6.6875,0,0,0,0,0
3.106,-6.0625,0,0,0,0,0
3.107,-5.75,0,0,0,0,0
3.108,-5.6875,0,0,0,0,0
3.109,-5.75,0,0,0,0,0
3.11,-6.25,0,0,0,0,0
3.111,-6.875,0,0,0,0,0
3.112,-6.625,0,0,0,0,0
3.113,-6.25,0,0,0,0,0
3.114,-6.3125,0,0,0,0,0
3.115,-6.875,0,0,0,0,0
3.116,-6.9375,0,0,0,0,0
3.117,-6.5625,0,0,0,0,0
3.118,-6.3125,0,0,0,0,0
3.119,-6.375,0,0,0,0,0
3.12,-6.5,0,0,0,0,0
3.121,-6.6875,0,0,0,0,0
3.122,-6.625,0,0,0,0,0
3.123,-6.5625,0,0,0,0,0
3.124,-6.3125,0,0,0,0,0
3.125,-5.75,0,0,0,0,0
3.126,-5.875,0,0,0,0,0
3.127,-5.9375,0,0,0,0,0
3.128,-5.75,0,0,0,0,0
3.129,-5.9375,0,0,0,0,0
3.13,-6,0,0,0,0,0
3.131,-5.75,0,0,0,0,0
3.132,-5.625,0,0,0,0,0
3.133,-5.3125,0,0,0,0,0
3.134,-5,0,0,0,0,0
3.135,-4.5,0,0,0,0,0
3.136,-4.4375,0,0,0,0,0
3.137,-4.1875,0,0,0,0,0
3.138,-4.3125,0,0,0,0,0
3.139,-4.375,0,0,0,0,0
3.14,-4.6875,0,0,0,0,0
3.141,-5,0,0,0,0,0
3.142,-4.8125,0,0,0,0,0
3.143,-5,0,0,0,0,1
3.144,-5,0,0,0,0,0
3.145,-4.0625,0,0,0,0,0
3.146,-4,0,0,0,0,0
3.147,-4.375,0,0,0,0,0
3.148,-4.0625,0,0,0,0,0
3.149,-4.1875,0,0,0,0,0
3.15,-3.8125,0,0,0,0,0
3.151,-3.5625,0,0,0,0,0
3.152,-3.875,0,0,0,0,0
3.153,-4.0625,0,0,0,0,0
3.154,-4.25,0,0,0,0,0
3.155,-4.6875,0,0,0,0,0
3.156,-4.625,0,0,0,0,0
3.157,-5.125,0,0,0,0,0
3.158,-5.25,0,0,0,0,0
3.159,-4.6875,0,0,0,0,0
3.16,-4.75,0,0,0,0,0
3.161,-4.6875,0,0,0,0,0
3.162,-4.375,0,0,0,0,0
3.163,-4.375,0,0,0,0,0
3.164,-4.75,0,0,0,0,0
3.165,-4.6875,0,0,0,0,0
3.166,-5,0,0,0,0,0
3.167,-4.5,0,0,0,0,0
3.168,-4.0625,0,0,0,0,0
3.169,-3.5625,0,0,0,0,0
3.17,-4.125,0,0,0,0,0
3.171,-4.1875,0,0,0,0,0
3.172,-4.8125,0,0,0,0,0
3.173,-5.625,0,0,0,0,0
3.174,-5.5,0,0,0,0,0
3.175,-5.3125,0,0,0,0,0
3.176,-5.3125,0,0,0,0,0
3.177,-5.3125,0,0,0,0,0
3.178,-5.5625,0,0,0,0,0
3.179,-5.9375,0,0,0,0,0
3.18,-5.75,0,0,0,0,0
3.181,-5.4375,0,0,0,0,0
3.182,-5.1875,0,0,0,0,0
3.183,-5.3125,0,0,0,0,0
3.184,-5.125,0,0,0,0,0
3.185,-5.625,0,0,0,0,0
3.186,-5.5625,0,0,0,0,0
3.187,-5.125,0,0,0,0,0
3.188,-5.4375,0,0,0,0,0
3.189,-5.625,0,0,0,0,0
3.19,-5.3125,0,0,0,0,0
3.191,-5,0,0,0,0,0
3.192,-5.3125,0,0,0,0,0
3.193,-5.4375,0,0,0,0,0
3.194,-5.3125,0,0,0,0,0
3.195,-5.3125,0,0,0,0,0
3.196,-5.125,0,0,0,0,0
3.197,-5.125,0,0,0,0,0
3.198,-5.5625,0,0,0,0,0
3.199,-5.625,0,0,0,0,0
3.2,-5.375,0,0,0,0,0
3.201,-5,0,0,0,0,0
3.202,-4.75,0,0,0,0,0
3.203,-5,0,0,0,0,0
3.204,-4.6875,0,0,0,0,0
3.205,-4.6875,0,0,0,0,0
3.206,-5,0,0,0,0,0
3.207,-5,0,0,0,0,0
3.208,-5.0625,0,0,0,0,0
3.209,-5.4375,0,0,0,0,0
3.21,-5.1875,0,0,0,0,0
3.211,-5,0,0,0,0,0
3.212,-4.6875,0,0,0,0,0
3.213,-4.6875,0,0,0,0,0
3.214,-4.625,0,0,0,0,0
3.215,-3.875,0,0,0,0,0
3.216,-3.875,0,0,0,0,0
3.217,-3.875,0,0,0,0,0
3.218,-4.25,0,0,0,0,0
3.219,-5,0,0,0,0,0
3.22,-5.5,0,0,0,0,0
3.221,-6.0625,0,0,0,0,0
3.222,-6.125,0,0,0,0,0
3.223,-6.375,0,0,0,0,0
3.224,-6.375,0,0,0,0,0
3.225,-6.5625,0,0,0,0,0
3.226,-6.5625,0,0,0,0,0
3.227,-6.375,0,0,0,0,0
3.228,-6.6875,0,0,0,0,0
3.229,-6.25,0,0,0,0,0
3.23,-5.9375,0,0,0,0,0
3.231,-5.75,0,0,0,0,0
3.232,-5.75,0,0,0,0,0
3.233,-6.0625,0,0,0,0,0
3.234,-5.9375,0,0,0,0,0
3.235,-5.9375,0,0,0,0,0
3.236,-6.1875,0,0,0,0,0
3.237,-6.5625,0,0,0,0,0
3.238,-6.125,0,0,0,0,0
3.239,-5.75,0,0,0,0,0
3.24,-5.8125,0,0,0,0,0
3.241,-5.75,0,0,0,0,0
3.242,-5.4375,0,0,0,0,0
3.243,-5.625,0,0,0,0,0
3.244,-5.75,0,0,0,0,0
3.245,-5.625,0,0,0,0,0
3.246,-5.625,0,0,0,0,0
3.247,-5.3125,0,0,0,0,0
3.248,-5.4375,0,0,0,0,0
3.249,-5.4375,0,0,0,0,0
3.25,-6.1875,0,0,0,0,0
3.251,-6.375,0,0,0,0,0
3.252,-6.125,0,0,0,0,0
3.253,-5.75,0,0,0,0,0
3.254,-6,0,0,0,0,0
3.255,-6.25,0,0,0,0,0
3.256,-6.0625,0,0,0,0,0
3.257,-5.75,0,0,0,0,0
3.258,-5.5,0,0,0,0,0
3.259,-5.4375,0,0,0,0,0
3.26,-5.25,0,0,0,0,0
3.261,-5.125,0,0,0,0,0
3.262,-5.1875,0,0,0,0,0
3.263,-5.4375,0,0,0,0,0
3.264,-5.125,0,0,0,0,0
3.265,-5,0,0,0,0,0
3.266,-5.25,0,0,0,0,0
3.267,-5.125,0,0,0,0,0
3.268,-5.8125,0,0,0,0,0
3.269,-6.5625,0,0,0,0,0
3.27,-6.1875,0,0,0,0,0
3.271,-5.9375,0,0,0,0,0
3.272,-6.3125,0,0,0,0,0
3.273,-6.25,0,0,0,0,0
3.274,-6.0625,0,0,0,0,0
3.275,-5.625,0,0,0,0,0
3.276,-5.75,0,0,0,0,0
3.277,-6.0625,0,0,0,0,0
3.278,-5.625,0,0,0,0,0
3.279,-5.625,0,0,0,0,0
3.28,-5.375,0,0,0,0,0
3.281,-4.6875,0,0,0,0,0
3.282,-4.625,0,0,0,0,0
3.283,-4.0625,0,0,0,0,0
3.284,-4.625,0,0,0,0,0
3.285,-4.6875,0,0,0,0,0
3.286,-5.0625,0,0,0,0,0
3.287,-5,0,0,0,0,0
3.288,-5.6875,0,0,0,0,0
3.289,-5.3125,0,0,0,0,0
3.29,-5.4375,0,0,0,0,0
3.291,-5,0,0,0,0,0
3.292,-4.625,0,0,0,0,0
3.293,-5,0,0,0,0,0
3.294,-5,0,0,0,0,0
3.295,-5,0,0,0,0,0
3.296,-5.1875,0,0,0,0,0
3.297,-5.4375,0,0,0,0,0
3.298,-5.0625,0,0,0,0,0
3.299,-5.125,0,0,0,0,0
3.3,-4.6875,0,0,0,0,0
3.301,-4.5,0,0,0,0,0
3.302,-5.1875,0,0,0,0,0
3.303,-5.75,0,0,0,0,0
3.304,-5.9375,0,0,0,0,0
3.305,-6.0625,0,0,0,0,0
3.306,-5.6875,0,0,0,0,0
3.307,-5.625,0,0,0,0,0
3.308,-5.875,0,0,0,0,0
3.309,-6.25,0,0,0,0,0
3.31,-6.0625,0,0,0,0,0
3.311,-5.9375,0,0,0,0,0
3.312,-6.4375,0,0,0,0,0
3.313,-7.5,0,0,0,0,0
3.314,-8.1875,0,0,0,0,0
3.315,-8.4375,0,0,0,0,0
3.316,-8.75,0,0,0,0,0
3.317,-8.875,0,0,0,0,0
3.318,-9.3125,0,0,0,0,0
3.319,-8.75,0,0,0,0,0
3.32,-8.5,0,0,0,0,0
3.321,-8.25,0,0,0,0,0
3.322,-8.625,0,0,0,0,0
3.323,-8.5625,0,0,0,0,0
3.324,-7.9375,0,0,0,0,0
3.325,-7.625,0,0,0,0,0
3.326,-7.875,0,0,0,0,0
3.327,-8.25,0,0,0,0,0
3.328,-8.375,0,0,0,0,0
3.329,-8.25,0,0,0,0,0
3.33,-8.875,0,0,0,0,0
3.331,-8.5625,0,0,0,0,0
3.332,-8.875,0,0,0,0,0
3.333,-8.75,0,0,0,0,0
3.334,-8.5625,0,0,0,0,0
3.335,-8.5625,0,0,0,0,0
3.336,-8.6875,0,0,0,0,0
3.337,-9.375,0,0,0,0,0
3.338,-9.5,0,0,0,0,0
3.339,-9.8125,0,0,0,0,0
3.34,-9.75,0,0,0,0,0
3.341,-10,0,0,0,0,0
3.342,-10,0,0,0,0,0
3.343,-10,0,0,0,0,0
3.344,-9.875,0,0,0,0,0
3.345,-9.6875,0,0,0,0,0
3.346,-9.375,0,0,0,0,0
3.347,-9.6875,0,0,0,0,0
3.348,-9.25,0,0,0,0,0
3.349,-9.375,0,0,0,0,0
3.35,-9.5625,0,0,0,0,0
3.351,-9.1875,0,0,0,0,0
3.352,-9.1875,0,0,0,0,0
3.353,-9.0625,0,0,0,0,0
3.354,-9.0625,0,0,0,0,0
3.355,-8.75,0,0,0,0,0
3.356,-8.5,0,0,0,0,0
3.357,-8.75,0,0,0,0,0
3.358,-8.4375,0,0,0,0,0
3.359,-8.5625,0,0,0,0,0
3.36,-8.875,0,0,0,0,0
3.361,-9.6875,0,0,0,0,0
3.362,-9.375,0,0,0,0,0
3.363,-9.1875,0,0,0,0,0
3.364,-9.375,0,0,0,0,0
3.365,-8.875,0,0,0,0,0
3.366,-9.375,0,0,0,0,0
3.367,-9.1875,0,0,0,0,0
3.368,-9.1875,0,0,0,0,0
3.369,-9.375,0,0,0,0,0
3.37,-9.5625,0,0,0,0,0
3.371,-9.5,0,0,0,0,0
3.372,-9.75,0,0,0,0,0
3.373,-9.6875,0,0,0,0,0
3.374,-10.063,0,0,0,0,0
3.375,-10.313,0,0,0,0,0
3.376,-9.625,0,0,0,0,0
3.377,-9.375,0,0,0,0,0
3.378,-8.4375,0,0,0,0,0
3.379,-7.8125,0,0,0,0,0
3.38,-7.5625,0,0,0,0,0
3.381,-7.3125,0,0,0,0,0
3.382,-7.375,0,0,0,0,0
3.383,-7.5,0,0,0,0,0
3.384,-7.6875,0,0,0,0,0
3.385,-7.1875,0,0,0,0,0
3.386,-6.6875,0,0,0,0,0
3.387,-5.9375,0,0,0,0,0
3.388,-6.625,0,0,0,0,0
3.389,-6.875,0,0,0,0,0
3.39,-6.875,0,0,0,0,0
3.391,-6.875,0,0,0,0,0
3.392,-6.0625,0,0,0,0,0
3.393,-5.4375,0,0,0,0,0
3.394,-4.375,0,0,0,0,0
3.395,-3.5625,0,0,0,0,0
3.396,-4.125,0,0,0,0,0
3.397,-4.5,0,0,0,0,0
3.398,-4.8125,0,0,0,0,0
3.399,-5.4375,0,0,0,0,0
3.4,-5.9375,0,0,0,0,0
3.401,-6.375,0,0,0,0,0
3.402,-5.4375,0,0,0,0,0
3.403,-4.6875,0,0,0,0,0
3.404,-4.5625,0,0,0,0,0
3.405,-4.6875,0,0,0,0,0
3.406,-4.6875,0,0,0,0,0
3.407,-4.6875,0,0,0,0,0
3.408,-4.5,0,0,0,0,0
3.409,-4.1875,0,0,0,0,0
3.41,-4.6875,0,0,0,0,0
3.411,-4.5,0,0,0,0,0
3.412,-4.3125,0,0,0,0,0
3.413,-4.0625,0,0,0,0,0
3.414,-5.0625,0,0,0,0,0
3.415,-5.625,0,0,0,0,0
3.416,-4.6875,0,0,0,0,0
3.417,-4.5,0,0,0,0,0
3.418,-3.875,0,0,0,0,0
3.419,-4.0625,0,0,0,0,0
3.42,-3.9375,0,0,0,0,0
3.421,-4.0625,0,0,0,0,0
3.422,-4.1875,0,0,0,0,0
3.423,-4.1875,0,0,0,0,0
3.424,-4.125,0,0,0,0,0
3.425,-4.0625,0,0,0,0,0
3.426,-4.0625,0,0,0,0,0
3.427,-3.875,0,0,0,0,0
3.428,-3.75,0,0,0,0,0
3.429,-3.4375,0,0,0,0,0
3.43,-3.5,0,0,0,0,0
3.431,-3.4375,0,0,0,0,0
3.432,-3.1875,0,0,0,0,0
3.433,-3.25,0,0,0,0,0
3.434,-3.375,0,0,0,0,0
3.435,-3.125,0,0,0,0,0
3.436,-3.1875,0,0,0,0,0
3.437,-3.4375,0,0,0,0,0
3.438,-2.875,0,0,0,0,0
3.439,-3.125,0,0,0,0,0
3.44,-3.125,0,0,0,0,0
3.441,-3.5625,0,0,0,0,0
3.442,-3.75,0,0,0,0,0
3.443,-3.75,0,0,0,0,0
3.444,-3.5,0,0,0,0,0
3.445,-3.4375,0,0,0,0,0
3.446,-3.4375,0,0,0,0,0
3.447,-3.25,0,0,0,0,0
3.448,-3.4375,0,0,0,0,0
3.449,-3.25,0,0,0,0,0
3.45,-3.5625,0,0,0,0,0
3.451,-3.75,0,0,0,0,0
3.452,-3.375,0,0,0,0,0
3.453,-2.5,0,0,0,0,0
3.454,-2.625,0,0,0,0,0
3.455,-2.9375,0,0,0,0,0
3.456,-3.3125,0,0,0,0,0
3.457,-4.0625,0,0,0,0,0
3.458,-4.1875,0,0,0,0,0
3.459,-4.1875,0,0,0,0,0
3.46,-3.8125,0,0,0,0,0
3.461,-3.4375,0,0,0,0,0
3.462,-3.625,0,0,0,0,0
3.463,-4.0625,0,0,0,0,0
3.464,-4.25,0,0,0,0,0
3.465,-5.125,0,0,0,0,0
3.466,-5.625,0,0,0,0,0
3.467,-5.125,0,0,0,0,0
3.468,-5.3125,0,0,0,0,0
3.469,-5,0,0,0,0,0
3.47,-5.375,0,0,0,0,0
3.471,-5.125,0,0,0,0,0
3.472,-4.5625,0,0,0,0,0
3.473,-3.875,0,0,0,0,0
3.474,-4.125,0,0,0,0,0
3.475,-4.1875,0,0,0,0,0
3.476,-3.5,0,0,0,0,0
3.477,-4.0625,0,0,0,0,0
3.478,-4.25,0,0,0,0,0
3.479,-4.5,0,0,0,0,0
3.48,-3.5625,0,0,0,0,0
3.481,-3.25,0,0,0,0,0
3.482,-3.5,0,0,0,0,0
3.483,-3.25,0,0,0,0,0
3.484,-3.3125,0,0,0,0,0
3.485,-2.8125,0,0,0,0,0
3.486,-2.25,1,0,0,0,0
3.487,-1.25,0,0,0,0,0
3.488,-1.9375,0,0,0,0,0
3.489,-2.625,0,0,0,0,0
3.49,-3.3125,0,0,0,0,0
3.491,-3.75,0,0,0,0,0
3.492,-3.75,0,0,0,0,0
3.493,-3.75,0,0,0,0,0
3.494,-4.0625,0,0,0,0,0
3.495,-4.5,0,0,0,0,0
3.496,-4.5625,0,0,0,0,0
3.497,-5.3125,0,0,0,0,0
3.498,-6.625,0,0,0,0,0
3.499,-7.9375,0,0,0,0,0
3.5,-7.1875,0,0,0,0,0
3.501,-7,0,0,0,0,0
3.502,-7.1875,0,0,0,0,0
3.503,-7.3125,0,0,0,0,0
3.504,-7.4375,0,0,0,0,0
3.505,-7.8125,0,0,0,0,0
3.506,-9.125,0,0,0,0,0
3.507,-10.125,0,0,0,0,0
3.508,-11.188,0,0,0,0,0
3.509,-12.313,0,0,0,0,0
3.51,-13.75,0,0,0,0,0
3.511,-15.625,0,0,0,0,0
3.512,-17.25,0,0,0,0,0
3.513,-19.188,0,0,0,0,0
3.514,-21.125,0,0,0,0,0
3.515,-23.125,0,0,0,0,0
3.516,-24.75,0,0,0,0,0
3.517,-26.25,0,0,0,0,0
3.518,-27,0,0,0,0,0
3.519,-28.25,0,0,0,0,0
3.52,-30,0,1,0,0,0
3.521,-31.375,0,0,0,0,0
3.522,-32.313,0,0,0,0,0
3.523,-33.125,0,0,0,0,0
3.524,-33.938,0,0,0,0,0
3.525,-34.5,0,0,0,0,0
3.526,-35.375,0,0,0,0,0
3.527,-35.438,0,0,0,0,0
3.528,-34.75,0,0,0,0,0
3.529,-34.063,0,0,0,0,0
3.53,-33,0,0,0,0,0
3.531,-31.375,0,0,0,0,0
3.532,-30.375,0,0,0,0,0
3.533,-28.875,0,0,0,0,0
3.534,-25.25,0,0,0,0,0
3.535,-20.75,0,0,0,0,0
3.536,-16.688,0,0,0,0,0
3.537,-13.563,0,0,0,0,0
3.538,-10.813,0,0,0,0,0
3.539,-8.25,0,0,0,0,0
3.54,-5.8125,0,0,0,0,0
3.541,-3.875,0,0,0,0,0
3.542,-2.1875,0,0,0,0,0
3.543,0.1875,0,0,0,0,0
3.544,1.1875,0,0,0,0,0
3.545,1.75,0,0,0,0,0
3.546,0.9375,0,0,0,0,0
3.547,0.9375,0,0,0,0,0
3.548,2,0,0,0,0,0
3.549,2.8125,0,0,0,0,0
3.55,3.625,0,0,0,0,0
3.551,3.3125,0,0,0,0,0
3.552,3.3125,0,0,0,0,0
3.553,3.4375,0,0,0,0,0
3.554,3.8125,0,0,0,0,0
3.555,4.0625,0,0,0,0,0
3.556,3,0,0,0,0,0
3.557,2.8125,0,0,0,0,0
3.558,2.75,0,0,0,0,0
3.559,2.5,0,0,0,0,0
3.56,1.9375,0,0,0,0,0
3.561,1.875,0,0,0,0,0
3.562,1.9375,0,0,0,0,0
3.563,2.0625,0,0,0,0,0
3.564,2.8125,0,0,0,0,0
3.565,3.3125,0,0,0,0,0
3.566,3.6875,0,0,0,0,0
3.567,4.375,0,0,0,0,0
3.568,4.5,0,0,0,0,0
3.569,3.9375,0,0,0,0,0
3.57,3.75,0,0,0,0,0
3.571,4.25,0,0,0,0,0
3.572,4.625,0,0,0,0,0
3.573,5,0,0,0,0,0
3.574,5.1875,0,0,0,0,0
3.575,5.1875,0,0,0,0,0
3.576,4.125,0,0,0,0,0
3.577,3.125,0,0,0,0,0
3.578,2.125,0,0,0,0,0
3.579,1.75,0,0,0,0,0
3.58,1.375,0,0,0,0,0
3.581,1.4375,0,0,0,0,0
3.582,2.3125,0,0,0,0,0
3.583,3.4375,0,0,0,0,0
3.584,3,0,0,0,0,0
3.585,2.8125,0,0,0,0,0
3.586,2.875,0,0,0,0,0
3.587,3.125,0,0,0,0,0
3.588,3.6875,0,0,0,0,0
3.589,4.0625,0,0,0,0,0
3.59,3.875,0,0,0,0,0
3.591,3.3125,0,0,0,0,0
3.592,3.3125,0,0,0,0,0
3.593,3.3125,0,0,0,0,0
3.594,3.375,0,0,0,0,0
3.595,3.9375,0,0,0,0,0
3.596,4.125,0,0,0,0,0
3.597,4.5625,0,0,0,0,0
3.598,4.375,0,0,0,0,0
3.599,4.875,0,0,0,0,0
3.6,5.3125,0,0,0,0,0
3.601,5.8125,0,0,0,0,0
3.602,5.4375,0,0,0,0,0
3.603,5.1875,0,0,0,0,0
3.604,5.8125,0,0,0,0,0
3.605,6.4375,0,0,0,0,0
3.606,6.3125,0,0,0,0,0
3.607,5.9375,0,0,0,0,0
3.608,4.9375,0,0,0,0,0
3.609,4.375,0,0,0,0,0
3.61,4.875,0,0,0,0,0
3.611,4.875,0,0,0,0,0
3.612,5.25,0,0,0,0,0
3.613,5.3125,0,0,0,0,0
3.614,4.875,0,0,0,0,0
3.615,4.5625,0,0,0,0,0
3.616,4.0625,0,0,0,0,0
3.617,3.625,0,0,0,0,0
3.618,3.6875,0,0,0,0,0
3.619,3.625,0,0,0,0,0
3.62,3.3125,0,0,0,0,0
3.621,3.4375,0,0,0,0,0
3.622,2.6875,0,0,0,0,0
3.623,2.5,0,0,0,0,0
3.624,1.875,0,0,0,0,0
3.625,1.4375,0,0,0,0,0
3.626,1.75,0,0,0,0,0
3.627,1.4375,0,0,0,0,0
3.628,1.5,0,0,0,0,0
3.629,1.4375,0,0,0,0,0
3.63,1.0625,0,0,0,0,0
3.631,0.5,0,0,0,0,0
3.632,-0.0625,0,0,0,0,0
3.633,-0.625,0,0,0,0,0
3.634,-0.625,0,0,0,0,0
3.635,-0.125,0,0,0,0,0
3.636,-0.625,0,0,0,0,0
3.637,-0.625,0,0,0,0,0
3.638,-1.0625,0,0,0,0,0
3.639,-1.25,0,0,0,0,0
3.64,-1.5625,0,0,0,0,0
3.641,-2.1875,0,0,0,0,0
3.642,-3.125,0,0,0,0,0
3.643,-3.4375,0,0,0,0,0
3.644,-3.4375,0,0,0,0,0
3.645,-3.5625,0,0,0,0,0
3.646,-3.5625,0,0,1,0,0
3.647,-3.75,0,0,0,0,0
3.648,-3.9375,0,0,0,0,0
3.649,-4.8125,0,0,0,0,0
3.65,-4.8125,0,0,0,0,0
3.651,-4.6875,0,0,0,0,0
3.652,-4.25,0,0,0,0,0
3.653,-3.5625,0,0,0,0,0
3.654,-3.6875,0,0,0,0,0
3.655,-3.25,0,0,0,0,0
3.656,-3.5,0,0,0,0,0
3.657,-3.75,0,0,0,0,0
3.658,-3.5625,0,0,0,0,0
3.659,-3.5625,0,0,0,0,0
3.66,-4.0625,0,0,0,0,0
3.661,-4.6875,0,0,0,0,0
3.662,-4.4375,0,0,0,0,0
3.663,-4.0625,0,0,0,0,0
3.664,-4.1875,0,0,0,0,0
3.665,-4.8125,0,0,0,0,0
3.666,-4.5625,0,0,0,0,0
3.667,-4.6875,0,0,0,0,0
3.668,-4.5625,0,0,0,0,0
3.669,-4.6875,0,0,0,0,0
3.67,-4.3125,0,0,0,0,0
3.671,-4.0625,0,0,0,0,0
3.672,-4.4375,0,0,0,0,0
3.673,-5.125,0,0,0,0,0
3.674,-5.4375,0,0,0,0,0
3.675,-5.4375,0,0,0,0,0
3.676,-5.9375,0,0,0,0,0
3.677,-5.625,0,0,0,0,0
3.678,-5.8125,0,0,0,0,0
3.679,-4.8125,0,0,0,0,0
3.68,-5,0,0,0,0,0
3.681,-5,0,0,0,0,0
3.682,-5.0625,0,0,0,0,0
3.683,-5.125,0,0,0,0,0
3.684,-4.9375,0,0,0,0,0
3.685,-4.6875,0,0,0,0,0
3.686,-4.9375,0,0,0,0,0
3.687,-4.8125,0,0,0,0,0
3.688,-4.8125,0,0,0,0,0
3.689,-5.3125,0,0,0,0,0
3.69,-5.375,0,0,0,0,0
3.691,-5.4375,0,0,0,0,0
3.692,-5.6875,0,0,0,0,0
3.693,-5.9375,0,0,0,0,0
3.694,-5.8125,0,0,0,0,0
3.695,-5.9375,0,0,0,0,0
3.696,-5.875,0,0,0,0,0
3.697,-5.75,0,0,0,0,0
3.698,-5.1875,0,0,0,0,0
3.699,-4.6875,0,0,0,0,0
3.7,-4.6875,0,0,0,0,0
3.701,-4.5,0,0,0,0,0
3.702,-4.5,0,0,0,0,0
3.703,-4.8125,0,0,0,0,0
3.704,-4.625,0,0,0,0,0
3.705,-4.375,0,0,0,0,0
3.706,-4.75,0,0,0,0,0
3.707,-5.125,0,0,0,0,0
3.708,-4.6875,0,0,0,0,0
3.709,-4.375,0,0,0,0,0
3.71,-4.875,0,0,0,0,0
3.711,-5.4375,0,0,0,0,0
3.712,-5.375,0,0,0,0,0
3.713,-5.75,0,0,0,0,0
3.714,-5.6875,0,0,0,0,0
3.715,-5.75,0,0,0,0,0
3.716,-5.875,0,0,0,0,0
3.717,-5.75,0,0,0,0,0
3.718,-5.75,0,0,0,0,0
3.719,-5.75,0,0,0,0,0
3.72,-5.375,0,0,0,0,0
3.721,-5,0,0,0,0,0
3.722,-4.8125,0,0,0,0,0
3.723,-4.8125,0,0,0,0,0
3.724,-4.6875,0,0,0,0,0
3.725,-4.5,0,0,0,0,0
3.726,-4.9375,0,0,0,0,0
3.727,-5.4375,0,0,0,0,0
3.728,-5.125,0,0,0,0,0
3.729,-5.125,0,0,0,0,0
3.73,-4.8125,0,0,0,0,0
3.731,-4.375,0,0,0,0,0
3.732,-4.1875,0,0,0,0,0
3.733,-4.0625,0,0,0,0,0
3.734,-4.5,0,0,0,0,0
3.735,-4.5,0,0,0,0,0
3.736,-4.25,0,0,0,0,0
3.737,-3.875,0,0,0,0,0
3.738,-5.125,0,0,0,0,0
3.739,-5.9375,0,0,0,0,0
3.74,-6,0,0,0,0,0
3.741,-6.0625,0,0,0,0,0
3.742,-5.875,0,0,0,0,0
3.743,-5.125,0,0,0,0,0
3.744,-4.5625,0,0,0,0,0
3.745,-4.375,0,0,0,0,0
3.746,-4.6875,0,0,0,0,0
3.747,-5,0,0,0,0,0
3.748,-5.125,0,0,0,0,0
3.749,-5.4375,0,0,0,0,0
3.75,-5.5,0,0,0,0,0
3.751,-5.4375,0,0,0,0,0
3.752,-4.6875,0,0,0,0,0
3.753,-4.375,0,0,0,0,0
3.754,-4.1875,0,0,0,0,0
3.755,-4.375,0,0,0,0,0
3.756,-4.125,0,0,0,0,0
3.757,-4.375,0,0,0,0,0
3.758,-4.5625,0,0,0,0,0
3.759,-4.8125,0,0,0,0,0
3.76,-5.0625,0,0,0,0,0
3.761,-5.4375,0,0,0,0,0
3.762,-5.8125,0,0,0,0,0
3.763,-6.375,0,0,0,0,0
3.764,-5.9375,0,0,0,0,0
3.765,-6.25,0,0,0,0,0
3.766,-6.0625,0,0,0,0,0
3.767,-6.0625,0,0,0,0,0
3.768,-5.5625,0,0,0,0,0
3.769,-5.625,0,0,0,0,0
3.77,-5.5625,0,0,0,0,0
3.771,-5.75,0,0,0,0,0
3.772,-5.375,0,0,0,0,0
3.773,-5.3125,0,0,0,0,0
3.774,-5.375,0,0,0,0,0
3.775,-5,0,0,0,0,0
3.776,-5.125,0,0,0,0,0
3.777,-5,0,0,0,0,0
3.778,-5,0,0,0,0,0
3.779,-5.3125,0,0,0,0,0
3.78,-5.75,0,0,0,0,0
3.781,-6.25,0,0,0,0,0
3.782,-6.1875,0,0,0,0,0
3.783,-5.75,0,0,0,0,0
3.784,-5.3125,0,0,0,0,0
3.785,-5.125,0,0,0,0,0
3.786,-4.8125,0,0,0,0,0
3.787,-4.1875,0,0,0,0,0
3.788,-4,0,0,0,0,0
3.789,-3.5625,0,0,0,0,0
3.79,-4.25,0,0,0,0,0
3.791,-5.3125,0,0,0,0,0
3.792,-6,0,0,0,0,0
3.793,-6.375,0,0,0,0,0
3.794,-6.25,0,0,0,0,0
3.795,-6.375,0,0,0,0,0
3.796,-6.3125,0,0,0,0,0
3.797,-6.375,0,0,0,0,0
3.798,-6.625,0,0,0,0,0
3.799,-6.875,0,0,0,0,0
3.8,-6.375,0,0,0,0,0
3.801,-6.25,0,0,0,0,0
3.802,-6.375,0,0,0,0,0
3.803,-6.375,0,0,0,0,0
3.804,-6.6875,0,0,0,0,0
3.805,-6.5625,0,0,0,0,0
3.806,-6.375,0,0,0,0,0
3.807,-6.375,0,0,0,0,0
3.808,-5.75,0,0,0,0,0
3.809,-6.0625,0,0,0,0,0
3.81,-6.4375,0,0,0,0,0
3.811,-6.875,0,0,0,0,0
3.812,-6.875,0,0,0,0,0
3.813,-6.375,0,0,0,0,0
3.814,-6.625,0,0,0,0,0
3.815,-6.875,0,0,0,0,0
3.816,-6.9375,0,0,0,0,0
3.817,-6.6875,0,0,0,0,0
3.818,-6.6875,0,0,0,0,0
3.819,-6.5625,0,0,0,0,0
3.82,-6.6875,0,0,0,0,0
3.821,-7,0,0,0,0,0
3.822,-7,0,0,0,0,0
3.823,-7.1875,0,0,0,0,0
3.824,-7.25,0,0,0,0,0
3.825,-7.8125,0,0,0,0,0
3.826,-7.625,0,0,0,0,0
3.827,-7.8125,0,0,0,0,0
3.828,-8,0,0,0,0,0
3.829,-7.9375,0,0,0,0,0
3.83,-8.3125,0,0,0,0,0
3.831,-8.75,0,0,0,0,0
3.832,-9.0625,0,0,0,0,0
3.833,-9.375,0,0,0,0,0
3.834,-8.875,0,0,0,0,0
3.835,-8.5625,0,0,0,0,0
3.836,-8.9375,0,0,0,0,0
3.837,-8.5625,0,0,0,0,0
3.838,-9.375,0,0,0,0,0
3.839,-9.0625,0,0,0,0,0
3.84,-8.875,0,0,0,0,0
3.841,-9.1875,0,0,0,0,0
3.842,-9.4375,0,0,0,0,0
3.843,-9.1875,0,0,0,0,0
3.844,-9.1875,0,0,0,0,0
3.845,-9.375,0,0,0,0,0
3.846,-9.0625,0,0,0,0,0
3.847,-8.875,0,0,0,1,0
3.848,-8.375,0,0,0,0,0
3.849,-7.8125,0,0,0,0,0
3.85,-7.5625,0,0,0,0,0
3.851,-7.625,0,0,0,0,0
3.852,-7.875,0,0,0,0,0
3.853,-8.4375,0,0,0,0,0
3.854,-8.875,0,0,0,0,0
3.855,-8.75,0,0,0,0,0
3.856,-8.5625,0,0,0,0,0
3.857,-8.5625,0,0,0,0,0
3.858,-9.1875,0,0,0,0,0
3.859,-9.375,0,0,0,0,0
3.86,-9,0,0,0,0,0
3.861,-8.875,0,0,0,0,0
3.862,-8.875,0,0,0,0,0
3.863,-9.375,0,0,0,0,0
3.864,-9.375,0,0,0,0,0
3.865,-9.5,0,0,0,0,0
3.866,-9.25,0,0,0,0,0
3.867,-8.875,0,0,0,0,0
3.868,-8.8125,0,0,0,0,0
3.869,-8.875,0,0,0,0,0
3.87,-9,0,0,0,0,0
3.871,-9.6875,0,0,0,0,0
3.872,-9.375,0,0,0,0,0
3.873,-9.0625,0,0,0,0,0
3.874,-8.5,0,0,0,0,0
3.875,-8.4375,0,0,0,0,0
3.876,-7.875,0,0,0,0,0
3.877,-7.3125,0,0,0,0,0
3.878,-7.125,0,0,0,0,0
3.879,-6.6875,0,0,0,0,0
3.88,-7.25,0,0,0,0,0
3.881,-7.3125,0,0,0,0,0
3.882,-7.1875,0,0,0,0,0
3.883,-7,0,0,0,0,0
3.884,-6.9375,0,0,0,0,0
3.885,-7,0,0,0,0,0
3.886,-6.6875,0,0,0,0,0
3.887,-6.0625,0,0,0,0,0
3.888,-6.0625,0,0,0,0,0
3.889,-6.375,0,0,0,0,0
3.89,-6.5625,0,0,0,0,0
3.891,-6.375,0,0,0,0,0
3.892,-6.4375,0,0,0,0,0
3.893,-6.375,0,0,0,0,0
3.894,-6.3125,0,0,0,0,0
3.895,-6.5625,0,0,0,0,0
3.896,-7.25,0,0,0,0,0
3.897,-7.8125,0,0,0,0,0
3.898,-7.4375,0,0,0,0,0
3.899,-7.3125,0,0,0,0,0
3.9,-7.0625,0,0,0,0,0
3.901,-7.3125,0,0,0,0,0
3.902,-6.6875,0,0,0,0,0
3.903,-6.25,0,0,0,0,0
3.904,-5.3125,0,0,0,0,0
3.905,-4.1875,0,0,0,0,0
3.906,-3.875,0,0,0,0,0
3.907,-4.0625,0,0,0,0,0
3.908,-4.25,0,0,0,0,0
3.909,-5,0,0,0,0,0
3.91,-5.125,0,0,0,0,0
3.911,-5.75,0,0,0,0,0
3.912,-5.6875,0,0,0,0,0
3.913,-5.4375,0,0,0,0,0
3.914,-5.25,0,0,0,0,0
3.915,-4.6875,0,0,0,0,0
3.916,-4.8125,0,0,0,0,0
3.917,-4.6875,0,0,0,0,0
3.918,-4.625,0,0,0,0,0
3.919,-4.6875,0,0,0,0,0
3.92,-4.4375,0,0,0,0,0
3.921,-4.375,0,0,0,0,0
3.922,-4.0625,0,0,0,0,0
3.923,-4.1875,0,0,0,0,0
3.924,-4.1875,0,0,0,0,0
3.925,-4.0625,0,0,0,0,0
3.926,-4.1875,0,0,0,0,0
3.927,-4.0625,0,0,0,0,0
3.928,-4,0,0,0,0,0
3.929,-4.1875,0,0,0,0,0
3.93,-3.8125,0,0,0,0,0
3.931,-3.875,0,0,0,0,0
3.932,-3.9375,0,0,0,0,0
3.933,-4.0625,0,0,0,0,0
3.934,-4.25,0,0,0,0,0
3.935,-4.5,0,0,0,0,0
3.936,-3.8125,0,0,0,0,0
3.937,-3.25,0,0,0,0,0
3.938,-3.5,0,0,0,0,0
3.939,-3.4375,0,0,0,0,0
3.94,-3.0625,0,0,0,0,0
3.941,-2.9375,0,0,0,0,0
3.942,-3.6875,0,0,0,0,0
3.943,-4.0625,0,0,0,0,0
3.944,-3.75,0,0,0,0,0
3.945,-3.75,0,0,0,0,0
3.946,-3.8125,0,0,0,0,0
3.947,-4.0625,0,0,0,0,0
3.948,-4.0625,0,0,0,0,1
3.949,-4.1875,0,0,0,0,0
3.95,-3.875,0,0,0,0,0
3.951,-4.1875,0,0,0,0,0
3.952,-4.1875,0,0,0,0,0
3.953,-3.875,0,0,0,0,0
3.954,-3.75,0,0,0,0,0
3.955,-3.25,0,0,0,0,0
3.956,-3.5,0,0,0,0,0
3.957,-3.4375,0,0,0,0,0
3.958,-3.125,0,0,0,0,0
3.959,-3.5625,0,0,0,0,0
3.96,-3.125,0,0,0,0,0
3.961,-2.9375,0,0,0,0,0
3.962,-3.25,0,0,0,0,0
3.963,-3.75,0,0,0,0,0
3.964,-3.4375,0,0,0,0,0
3.965,-3.5625,0,0,0,0,0
3.966,-3.5,0,0,0,0,0
3.967,-3.5625,0,0,0,0,0
3.968,-4.125,0,0,0,0,0
3.969,-4.6875,0,0,0,0,0
3.97,-4.75,0,0,0,0,0
3.971,-4.6875,0,0,0,0,0
3.972,-4.125,0,0,0,0,0
3.973,-3.5625,0,0,0,0,0
3.974,-4.1875,0,0,0,0,0
3.975,-4.5,0,0,0,0,0
3.976,-4.75,0,0,0,0,0
3.977,-5,0,0,0,0,0
3.978,-5.6875,0,0,0,0,0
3.979,-5.625,0,0,0,0,0
3.98,-5.375,0,0,0,0,0
3.981,-5,0,0,0,0,0
3.982,-4.625,0,0,0,0,0
3.983,-4.375,0,0,0,0,0
3.984,-4,0,0,0,0,0
3.985,-4.0625,0,0,0,0,0
3.986,-4.125,0,0,0,0,0
3.987,-4.1875,0,0,0,0,0
3.988,-4.375,0,0,0,0,0
3.989,-4.1875,0,0,0,0,0
3.99,-3.75,0,0,0,0,0
3.991,-3.875,0,0,0,0,0
3.992,-4,0,0,0,0,0
3.993,-3.5625,0,0,0,0,0
3.994,-3.8125,0,0,0,0,0
3.995,-3.875,0,0,0,0,0
3.996,-3.9375,0,0,0,0,0
3.997,-4.0625,0,0,0,0,0
3.998,-3.75,0,0,0,0,0
3.999,-3.5625,0,0,0,0,0
4,-3.8125,0,0,0,0,0
4.001,-4.0625,0,0,0,0,0
4.002,-4.1875,0,0,0,0,0
4.003,-4.375,0,0,0,0,0
4.004,-5,0,0,0,0,0
4.005,-5.4375,0,0,0,0,0
4.006,-5,0,0,0,0,0
4.007,-4.1875,0,0,0,0,0
4.008,-4.375,0,0,0,0,0
4.009,-4.375,0,0,0,0,0
4.01,-4.125,0,0,0,0,0
4.011,-4.0625,0,0,0,0,0
4.012,-4.4375,0,0,0,0,0
4.013,-4.8125,0,0,0,0,0
4.014,-5.375,0,0,0,0,0
4.015,-5.9375,0,0,0,0,0
4.016,-5.5625,0,0,0,0,0
4.017,-5.3125,0,0,0,0,0
4.018,-5.5625,0,0,0,0,0
4.019,-5.3125,0,0,0,0,0
4.02,-4.8125,0,0,0,0,0
4.021,-4.1875,0,0,0,0,0
4.022,-4.375,0,0,0,0,0
4.023,-4.5,0,0,0,0,0
4.024,-4.5,0,0,0,0,0
4.025,-4.5,0,0,0,0,0
4.026,-4.0625,0,0,0,0,0
4.027,-4.0625,0,0,0,0,0
4.028,-3.5,0,0,0,0,0
4.029,-3.4375,0,0,0,0,0
4.03,-3,0,0,0,0,0
4.031,-3.125,0,0,0,0,0
4.032,-3.625,0,0,0,0,0
4.033,-3.75,0,0,0,0,0
4.034,-4.25,0,0,0,0,0
4.035,-5.125,0,0,0,0,0
4.036,-5,0,0,0,0,0
4.037,-4.6875,0,0,0,0,0
4.038,-4.1875,0,0,0,0,0
4.039,-3.875,0,0,0,0,0
4.04,-3.875,0,0,0,0,0
4.041,-3.75,0,0,0,0,0
4.042,-3.625,0,0,0,0,0
4.043,-3.75,0,0,0,0,0
4.044,-4.0625,0,0,0,0,0
4.045,-3.875,0,0,0,0,0
4.046,-4.25,0,0,0,0,0
4.047,-4.6875,0,0,0,0,0
4.048,-5.25,0,0,0,0,0
4.049,-5.75,0,0,0,0,0
4.05,-5.625,0,0,0,0,0
4.051,-5.625,0,0,0,0,0
4.052,-5.0625,0,0,0,0,0
4.053,-4.6875,0,0,0,0,0
4.054,-4.8125,0,0,0,0,0
4.055,-4.5,0,0,0,0,0
4.056,-4.75,0,0,0,0,0
4.057,-4.5,0,0,0,0,0
4.058,-4.75,0,0,0,0,0
4.059,-5,0,0,0,0,0
4.06,-4.5625,0,0,0,0,0
4.061,-4.6875,0,0,0,0,0
4.062,-4.375,0,0,0,0,0
4.063,-4.1875,0,0,0,0,0
4.064,-4.25,0,0,0,0,0
4.065,-4.0625,0,0,0,0,0
4.066,-3.625,0,0,0,0,0
4.067,-3.5625,0,0,0,0,0
4.068,-3.8125,0,0,0,0,0
4.069,-3.5625,0,0,0,0,0
4.07,-3.25,0,0,0,0,0
4.071,-3.125,0,0,0,0,0
4.072,-4.0625,0,0,0,0,0
4.073,-4.6875,0,0,0,0,0
4.074,-5.125,0,0,0,0,0
4.075,-5.125,0,0,0,0,0
4.076,-5.5625,0,0,0,0,0
4.077,-4.8125,0,0,0,0,0
4.078,-4.5625,0,0,0,0,0
4.079,-3.75,0,0,0,0,0
4.08,-3.1875,0,0,0,0,0
4.081,-3.25,0,0,0,0,0
4.082,-3.1875,0,0,0,0,0
4.083,-3.125,0,0,0,0,0
4.084,-3.5,0,0,0,0,0
4.085,-3.875,0,0,0,0,0
4.086,-3.5,0,0,0,0,0
4.087,-3.5625,0,0,0,0,0
4.088,-3.4375,0,0,0,0,0
4.089,-3.5625,0,0,0,0,0
4.09,-4.0625,0,0,0,0,0
4.091,-4.375,0,0,0,0,0
4.092,-4.5,0,0,0,0,0
4.093,-4.6875,0,0,0,0,0
4.094,-4.75,0,0,0,0,0
4.095,-5.125,0,0,0,0,0
4.096,-5.1875,0,0,0,0,0
4.097,-5.3125,0,0,0,0,0
4.098,-5.5,0,0,0,0,0
4.099,-5.75,0,0,0,0,0
4.1,-5.3125,0,0,0,0,0
4.101,-5.3125,0,0,0,0,0
4.102,-5.8125,0,0,0,0,0
4.103,-5.9375,0,0,0,0,0
4.104,-6.625,0,0,0,0,0
4.105,-7.1875,0,0,0,0,0
4.106,-7.8125,0,0,0,0,0
4.107,-7.5,0,0,0,0,0
4.108,-7.5,0,0,0,0,0
4.109,-7.5,0,0,0,0,0
4.11,-7.5625,0,0,0,0,0
4.111,-7.1875,0,0,0,0,0
4.112,-6.6875,0,0,0,0,0
4.113,-6.5625,0,0,0,0,0
4.114,-7,0,0,0,0,0
4.115,-7.625,0,0,0,0,0
4.116,-7.6875,0,0,0,0,0
4.117,-7.5,0,0,0,0,0
4.118,-8.0625,0,0,0,0,0
4.119,-7.625,0,0,0,0,0
4.12,-7.8125,0,0,0,0,0
4.121,-7.5,0,0,0,0,0
4.122,-7.4375,0,0,0,0,0
4.123,-7.625,0,0,0,0,0
4.124,-7.9375,0,0,0,0,0
4.125,-8.875,0,0,0,0,0
4.126,-8.875,0,0,0,0,0
4.127,-9.0625,0,0,0,0,0
4.128,-9.1875,0,0,0,0,0
4.129,-9.6875,0,0,0,0,0
4.13,-9.375,0,0,0,0,0
4.131,-9.0625,0,0,0,0,0
4.132,-8.75,0,0,0,0,0
4.133,-8.4375,0,0,0,0,0
4.134,-8.1875,0,0,0,0,0
4.135,-8.5625,0,0,0,0,0
4.136,-8.5,0,0,0,0,0
4.137,-8.875,0,0,0,0,0
4.138,-9.1875,0,0,0,0,0
4.139,-9.0625,0,0,0,0,0
4.14,-9,0,0,0,0,0
4.141,-8.75,0,0,0,0,0
4.142,-8.875,0,0,0,0,0
4.143,-8.75,0,0,0,0,0
4.144,-8.5,0,0,0,0,0
4.145,-8.75,0,0,0,0,0
4.146,-8.5,0,0,0,0,0
4.147,-8.75,0,0,0,0,0
4.148,-8.5,0,0,0,0,0
4.149,-8.75,0,0,0,0,0
4.15,-8.6875,0,0,0,0,0
4.151,-8.75,0,0,0,0,0
4.152,-8.75,0,0,0,0,0
4.153,-8.125,0,0,0,0,0
4.154,-7.5,0,0,0,0,0
4.155,-6.25,0,0,0,0,0
4.156,-6.3125,0,0,0,0,0
4.157,-6.5625,0,0,0,0,0
4.158,-6.625,0,0,0,0,0
4.159,-6.375,0,0,0,0,0
4.16,-6.25,0,0,0,0,0
4.161,-5.75,0,0,0,0,0
4.162,-5.625,0,0,0,0,0
4.163,-5.3125,0,0,0,0,0
4.164,-5.375,0,0,0,0,0
4.165,-5.9375,0,0,0,0,0
4.166,-5.6875,0,0,0,0,0
4.167,-5.75,0,0,0,0,0
4.168,-5.75,0,0,0,0,0
4.169,-5.75,0,0,0,0,0
4.17,-5.75,0,0,0,0,0
4.171,-5.75,0,0,0,0,0
4.172,-6,0,0,0,0,0
4.173,-5.4375,0,0,0,0,0
4.174,-5.375,0,0,0,0,0
4.175,-5,0,0,0,0,0
4.176,-5.4375,0,0,0,0,0
4.177,-5.4375,0,0,0,0,0
4.178,-5.8125,0,0,0,0,0
4.179,-6.25,0,0,0,0,0
4.18,-5.6875,0,0,0,0,0
4.181,-5.3125,0,0,0,0,0
4.182,-5.1875,0,0,0,0,0
4.183,-5.4375,0,0,0,0,0
4.184,-5.375,0,0,0,0,0
4.185,-5.125,0,0,0,0,0
4.186,-4.4375,0,0,0,0,0
4.187,-4.0625,0,0,0,0,0
4.188,-3.8125,0,0,0,0,0
4.189,-3.5625,0,0,0,0,0
4.19,-3.6875,0,0,0,0,0
4.191,-4.0625,0,0,0,0,0
4.192,-3.375,0,0,0,0,0
4.193,-2.8125,0,0,0,0,0
4.194,-2.9375,0,0,0,0,0
4.195,-3.125,0,0,0,0,0
4.196,-3.125,0,0,0,0,0
4.197,-2.9375,0,0,0,0,0
4.198,-3.25,0,0,0,0,0
4.199,-2.9375,0,0,0,0,0
4.2,-2.8125,0,0,0,0,0
4.201,-2.625,0,0,0,0,0
4.202,-2.625,0,0,0,0,0
4.203,-2.1875,0,0,0,0,0
4.204,-1.5625,0,0,0,0,0
4.205,-1.6875,0,0,0,0,0
4.206,-1.9375,0,0,0,0,0
4.207,-2.9375,0,0,0,0,0
4.208,-2.75,0,0,0,0,0
4.209,-2.625,0,0,0,0,0
4.21,-2.625,0,0,0,0,0
4.211,-2.5,0,0,0,0,0
4.212,-2.375,0,0,0,0,0
4.213,-2.3125,0,0,0,0,0
4.214,-2.125,0,0,0,0,0
4.215,-1.6875,0,0,0,0,0
4.216,-2.3125,0,0,0,0,0
4.217,-2.8125,0,0,0,0,0
4.218,-2.8125,0,0,0,0,0
4.219,-2.625,0,0,0,0,0
4.22,-2.125,0,0,0,0,0
4.221,-1.875,0,0,0,0,0
4.222,-2,0,0,0,0,0
4.223,-1.875,0,0,0,0,0
4.224,-1.9375,0,0,0,0,0
4.225,-2.1875,0,0,0,0,0
4.226,-2.1875,0,0,0,0,0
4.227,-2.9375,0,0,0,0,0
4.228,-2.875,0,0,0,0,0
4.229,-3.25,0,0,0,0,0
4.23,-3.375,0,0,0,0,0
4.231,-3.25,0,0,0,0,0
4.232,-3.25,0,0,0,0,0
4.233,-3.4375,0,0,0,0,0
4.234,-3.25,0,0,0,0,0
4.235,-2.9375,0,0,0,0,0
4.236,-3.0625,0,0,0,0,0
4.237,-2.8125,0,0,0,0,0
4.238,-3.3125,0,0,0,0,0
4.239,-3.75,0,0,0,0,0
4.24,-3.875,0,0,0,0,0
4.241,-3.5625,0,0,0,0,0
4.242,-3.3125,0,0,0,0,0
4.243,-3.125,0,0,0,0,0
4.244,-2.8125,0,0,0,0,0
4.245,-2.8125,0,0,0,0,0
4.246,-2.6875,0,0,0,0,0
4.247,-2.5,0,0,0,0,0
4.248,-2.25,0,0,0,0,0
4.249,-2,0,0,0,0,0
4.25,-1.5,0,0,0,0,0
4.251,-1.0625,0,0,0,0,0
4.252,-0.6875,0,0,0,0,0
4.253,-0.9375,0,0,0,0,0
4.254,-1.375,0,0,0,0,0
4.255,-0.9375,0,0,0,0,0
4.256,-1.125,0,0,0,0,0
4.257,-0.9375,0,0,0,0,0
4.258,-1.3125,0,0,0,0,0
4.259,-1.0625,0,0,0,0,0
4.26,-1.9375,0,0,0,0,0
4.261,-2.8125,0,0,0,0,0
4.262,-3.8125,0,0,0,0,0
4.263,-4.6875,0,0,0,0,0
4.264,-3.6875,0,0,0,0,0
4.265,-3.875,0,0,0,0,0
4.266,-3.1875,0,0,0,0,0
4.267,-2.5,0,0,0,0,0
4.268,-2.0625,0,0,0,0,0
4.269,-2.3125,0,0,0,0,0
4.27,-2.9375,0,0,0,0,0
4.271,-3.125,0,0,0,0,0
4.272,-3.1875,0,0,0,0,0
4.273,-2.8125,0,0,0,0,0
4.274,-2.9375,0,0,0,0,0
4.275,-2.625,0,0,0,0,0
4.276,-2.9375,0,0,0,0,0
4.277,-3.25,0,0,0,0,0
4.278,-3.0625,0,0,0,0,0
4.279,-2.5,0,0,0,0,0
4.28,-2.875,0,0,0,0,0
4.281,-3.25,0,0,0,0,0
4.282,-3.625,0,0,0,0,0
4.283,-4.1875,1,0,0,0,0
4.284,-3.875,0,0,0,0,0
4.285,-4.1875,0,0,0,0,0
4.286,-4.5,0,0,0,0,0
4.287,-4.8125,0,0,0,0,0
4.288,-5.125,0,0,0,0,0
4.289,-6.0625,0,0,0,0,0
4.29,-6.875,0,0,0,0,0
4.291,-7.625,0,0,0,0,0
4.292,-8.125,0,0,0,0,0
4.293,-8.875,0,0,0,0,0
4.294,-10.188,0,0,0,0,0
4.295,-11.25,0,0,0,0,0
4.296,-12.438,0,0,0,0,0
4.297,-13.75,0,0,0,0,0
4.298,-14.75,0,0,0,0,0
4.299,-16.25,0,0,0,0,0
4.3,-18.625,0,0,0,0,0
4.301,-21.375,0,0,0,0,0
4.302,-23.375,0,0,0,0,0
4.303,-25.313,0,0,0,0,0
4.304,-26.813,0,0,0,0,0
4.305,-28.125,0,0,0,0,0
4.306,-28.25,0,0,0,0,0
4.307,-28.875,0,0,0,0,0
4.308,-29.938,0,0,0,0,0
4.309,-30.625,0,0,0,0,0
4.31,-31.563,0,0,0,0,0
4.311,-32.313,0,0,0,0,0
4.312,-33,0,0,0,0,0
4.313,-33.25,0,0,0,0,0
4.314,-33.438,0,0,0,0,0
4.315,-32.813,0,0,0,0,0
4.316,-31.563,0,0,0,0,0
4.317,-30.313,0,0,0,0,0
4.318,-28.688,0,1,0,0,0
4.319,-26.375,0,0,0,0,0
4.32,-24.25,0,0,0,0,0
4.321,-21.563,0,0,0,0,0
4.322,-19.188,0,0,0,0,0
4.323,-16.063,0,0,0,0,0
4.324,-12.125,0,0,0,0,0
4.325,-9.0625,0,0,0,0,0
4.326,-6.5,0,0,0,0,0
4.327,-4.0625,0,0,0,0,0
4.328,-1.75,0,0,0,0,0
4.329,0,0,0,0,0,0
4.33,0.5,0,0,0,0,0
4.331,1.5625,0,0,0,0,0
4.332,1.9375,0,0,0,0,0
4.333,1.875,0,0,0,0,0
4.334,1.875,0,0,0,0,0
4.335,2.6875,0,0,0,0,0
4.336,3.8125,0,0,0,0,0
4.337,4.875,0,0,0,0,0
4.338,6,0,0,0,0,0
4.339,6.125,0,0,0,0,0
4.34,6.125,0,0,0,0,0
4.341,6.25,0,0,0,0,0
4.342,6.3125,0,0,0,0,0
4.343,6.25,0,0,0,0,0
4.344,5.3125,0,0,0,0,0
4.345,5.3125,0,0,0,0,0
4.346,4.875,0,0,0,0,0
4.347,4.25,0,0,0,0,0
4.348,3.5625,0,0,0,0,0
4.349,3.4375,0,0,0,0,0
4.35,3.5,0,0,0,0,0
4.351,3.625,0,0,0,0,0
4.352,4.25,0,0,0,0,0
4.353,4.5625,0,0,0,0,0
4.354,4.5625,0,0,0,0,0
4.355,4.875,0,0,0,0,0
4.356,5,0,0,0,0,0
4.357,4.5625,0,0,0,0,0
4.358,4.375,0,0,0,0,0
4.359,4.875,0,0,0,0,0
4.36,5,0,0,0,0,0
4.361,5.1875,0,0,0,0,0
4.362,4.9375,0,0,0,0,0
4.363,4.5625,0,0,0,0,0
4.364,3.9375,0,0,0,0,0
4.365,3.4375,0,0,0,0,0
4.366,2.75,0,0,0,0,0
4.367,2.6875,0,0,0,0,0
4.368,1.9375,0,0,0,0,0
4.369,1.75,0,0,0,0,0
4.37,2,0,0,0,0,0
4.371,2.375,0,0,0,0,0
4.372,2.75,0,0,0,0,0
4.373,3.4375,0,0,0,0,0
4.374,3.6875,0,0,0,0,0
4.375,4.25,0,0,0,0,0
4.376,4.6875,0,0,0,0,0
4.377,5,0,0,0,0,0
4.378,5.0625,0,0,0,0,0
4.379,4.875,0,0,0,0,0
4.38,4.6875,0,0,0,0,0
4.381,4.5625,0,0,0,0,0
4.382,4.5625,0,0,0,0,0
4.383,5,0,0,0,0,0
4.384,5.375,0,0,0,0,0
4.385,5.9375,0,0,0,0,0
4.386,5.9375,0,0,0,0,0
4.387,6.5625,0,0,0,0,0
4.388,6.625,0,0,0,0,0
4.389,6.5625,0,0,0,0,0
4.39,6.375,0,0,0,0,0
4.391,6.25,0,0,0,0,0
4.392,6.375,0,0,0,0,0
4.393,6.4375,0,0,0,0,0
4.394,6.6875,0,0,0,0,0
4.395,6.75,0,0,0,0,0
4.396,6.4375,0,0,0,0,0
4.397,6.5625,0,0,0,0,0
4.398,6.75,0,0,0,0,0
4.399,6.4375,0,0,0,0,0
4.4,6.375,0,0,0,0,0
4.401,5.9375,0,0,0,0,0
4.402,6.4375,0,0,0,0,0
4.403,7.0625,0,0,0,0,0
4.404,7,0,0,0,0,0
4.405,7.0625,0,0,0,0,0
4.406,6.75,0,0,0,0,0
4.407,6.25,0,0,0,0,0
4.408,5.1875,0,0,0,0,0
4.409,4.5625,0,0,0,0,0
4.41,4.0625,0,0,0,0,0
4.411,4.25,0,0,0,0,0
4.412,4.0625,0,0,0,0,0
4.413,4.0625,0,0,0,0,0
4.414,3.4375,0,0,0,0,0
4.415,2.1875,0,0,0,0,0
4.416,1.75,0,0,0,0,0
4.417,1.125,0,0,0,0,0
4.418,0.5,0,0,0,0,0
4.419,-0.3125,0,0,0,0,0
4.42,-0.875,0,0,0,0,0
4.421,-1.375,0,0,0,0,0
4.422,-1.25,0,0,0,0,0
4.423,-0.625,0,0,0,0,0
4.424,-0.875,0,0,0,0,0
4.425,-0.625,0,0,0,0,0
4.426,-1.1875,0,0,0,0,0
4.427,-1.5625,0,0,0,0,0
4.428,-1.3125,0,0,0,0,0
4.429,-1.375,0,0,0,0,0
4.43,-1.9375,0,0,0,0,0
4.431,-1.875,0,0,0,0,0
4.432,-2.625,0,0,0,0,0
4.433,-3.5625,0,0,0,0,0
4.434,-3.1875,0,0,0,0,0
4.435,-2.9375,0,0,0,0,0
4.436,-2.6875,0,0,0,0,0
4.437,-3.125,0,0,0,0,0
4.438,-2.75,0,0,0,0,0
4.439,-2.1875,0,0,0,0,0
4.44,-2.5625,0,0,0,0,0
4.441,-2.8125,0,0,0,0,0
4.442,-3.375,0,0,0,0,0
4.443,-3.4375,0,0,0,0,0
4.444,-3.4375,0,0,0,0,0
4.445,-3.4375,0,0,0,0,0
4.446,-3.4375,0,0,0,0,0
4.447,-3.5625,0,0,0,0,0
4.448,-3.75,0,0,0,0,0
4.449,-4.0625,0,0,1,0,0
4.45,-4.5,0,0,0,0,0
4.451,-4.8125,0,0,0,0,0
4.452,-5,0,0,0,0,0
4.453,-5.625,0,0,0,0,0
4.454,-5,0,0,0,0,0
4.455,-4.6875,0,0,0,0,0
4.456,-4.6875,0,0,0,0,0
4.457,-4.8125,0,0,0,0,0
4.458,-4.875,0,0,0,0,0
4.459,-5.125,0,0,0,0,0
4.46,-4.875,0,0,0,0,0
4.461,-4.8125,0,0,0,0,0
4.462,-4.5,0,0,0,0,0
4.463,-3.875,0,0,0,0,0
4.464,-4.375,0,0,0,0,0
4.465,-4.0625,0,0,0,0,0
4.466,-4.625,0,0,0,0,0
4.467,-4.0625,0,0,0,0,0
4.468,-3.6875,0,0,0,0,0
4.469,-3.125,0,0,0,0,0
4.47,-3.0625,0,0,0,0,0
4.471,-2.9375,0,0,0,0,0
4.472,-3.5,0,0,0,0,0
4.473,-4.0625,0,0,0,0,0
4.474,-4.3125,0,0,0,0,0
4.475,-4.1875,0,0,0,0,0
4.476,-4.375,0,0,0,0,0
4.477,-5,0,0,0,0,0
4.478,-5,0,0,0,0,0
4.479,-5,0,0,0,0,0
4.48,-5.125,0,0,0,0,0
4.481,-5.3125,0,0,0,0,0
4.482,-5.125,0,0,0,0,0
4.483,-5.125,0,0,0,0,0
4.484,-5.25,0,0,0,0,0
4.485,-5.3125,0,0,0,0,0
4.486,-4.6875,0,0,0,0,0
4.487,-4.1875,0,0,0,0,0
4.488,-4.4375,0,0,0,0,0
4.489,-4.5,0,0,0,0,0
4.49,-4.125,0,0,0,0,0
4.491,-4.0625,0,0,0,0,0
4.492,-4.125,0,0,0,0,0
4.493,-4.1875,0,0,0,0,0
4.494,-4.375,0,0,0,0,0
4.495,-4.5,0,0,0,0,0
4.496,-4.6875,0,0,0,0,0
4.497,-5,0,0,0,0,0
4.498,-5.125,0,0,0,0,0
4.499,-5.3125,0,0,0,0,0
4.5,-4.75,0,0,0,0,0
4.501,-4.6875,0,0,0,0,0
4.502,-4.5625,0,0,0,0,0
4.503,-4.5,0,0,0,0,0
4.504,-4.6875,0,0,0,0,0
4.505,-4.6875,0,0,0,0,0
4.506,-5,0,0,0,0,0
4.507,-5.3125,0,0,0,0,0
4.508,-5,0,0,0,0,0
4.509,-4.6875,0,0,0,0,0
4.51,-4.3125,0,0,0,0,0
4.511,-4.0625,0,0,0,0,0
4.512,-3.8125,0,0,0,0,0
4.513,-3.5625,0,0,0,0,0
4.514,-3.875,0,0,0,0,0
4.515,-4.375,0,0,0,0,0
4.516,-4.25,0,0,0,0,0
4.517,-4.5,0,0,0,0,0
4.518,-4.6875,0,0,0,0,0
4.519,-4.6875,0,0,0,0,0
4.52,-4.5625,0,0,0,0,0
4.521,-4.5,0,0,0,0,0
4.522,-5.0625,0,0,0,0,0
4.523,-5.125,0,0,0,0,0
4.524,-4.875,0,0,0,0,0
4.525,-4.5,0,0,0,0,0
4.526,-4.625,0,0,0,0,0
4.527,-4.1875,0,0,0,0,0
4.528,-4.3125,0,0,0,0,0
4.529,-4.375,0,0,0,0,0
4.53,-4.5625,0,0,0,0,0
4.531,-4.375,0,0,0,0,0
4.532,-4.5,0,0,0,0,0
4.533,-5,0,0,0,0,0
4.534,-5.0625,0,0,0,0,0
4.535,-5.125,0,0,0,0,0
4.536,-5.0625,0,0,0,0,0
4.537,-5.125,0,0,0,0,0
4.538,-5.6875,0,0,0,0,0
4.539,-6.25,0,0,0,0,0
4.54,-5.9375,0,0,0,0,0
4.541,-6.0625,0,0,0,0,0
4.542,-6.1875,0,0,0,0,0
4.543,-6.5625,0,0,0,0,0
4.544,-5.6875,0,0,0,0,0
4.545,-5.3125,0,0,0,0,0
4.546,-5.0625,0,0,0,0,0
4.547,-4.8125,0,0,0,0,0
4.548,-4.3125,0,0,0,0,0
4.549,-3.875,0,0,0,0,0
4.55,-3.9375,0,0,0,0,0
4.551,-4.1875,0,0,0,0,0
4.552,-4.125,0,0,0,0,0
4.553,-4.8125,0,0,0,0,0
4.554,-5.0625,0,0,0,0,0
4.555,-5.4375,0,0,0,0,0
4.556,-5.6875,0,0,0,0,0
4.557,-6.5625,0,0,0,0,0
4.558,-6,0,0,0,0,0
4.559,-5.75,0,0,0,0,0
4.56,-5.625,0,0,0,0,0
4.561,-5.75,0,0,0,0,0
4.562,-6,0,0,0,0,0
4.563,-5.75,0,0,0,0,0
4.564,-5.9375,0,0,0,0,0
4.565,-5.75,0,0,0,0,0
4.566,-5.4375,0,0,0,0,0
4.567,-5.4375,0,0,0,0,0
4.568,-5.3125,0,0,0,0,0
4.569,-5.125,0,0,0,0,0
4.57,-5.125,0,0,0,0,0
4.571,-4.8125,0,0,0,0,0
4.572,-4.75,0,0,0,0,0
4.573,-5,0,0,0,0,0
4.574,-5.0625,0,0,0,0,0
4.575,-4.8125,0,0,0,0,0
4.576,-5.5,0,0,0,0,0
4.577,-6.0625,0,0,0,0,0
4.578,-5.75,0,0,0,0,0
4.579,-5.75,0,0,0,0,0
4.58,-5.625,0,0,0,0,0
4.581,-5.125,0,0,0,0,0
4.582,-5.125,0,0,0,0,0
4.583,-5.4375,0,0,0,0,0
4.584,-5.625,0,0,0,0,0
4.585,-5.9375,0,0,0,0,0
4.586,-5.9375,0,0,0,0,0
4.587,-5.9375,0,0,0,0,0
4.588,-5.6875,0,0,0,0,0
4.589,-5.75,0,0,0,0,0
4.59,-6.0625,0,0,0,0,0
4.591,-6.25,0,0,0,0,0
4.592,-6.625,0,0,0,0,0
4.593,-6.5625,0,0,0,0,0
4.594,-6.6875,0,0,0,0,0
4.595,-7,0,0,0,0,0
4.596,-6.5,0,0,0,0,0
4.597,-6.875,0,0,0,0,0
4.598,-6.9375,0,0,0,0,0
4.599,-7,0,0,0,0,0
4.6,-7.1875,0,0,0,0,0
4.601,-6.875,0,0,0,0,0
4.602,-6.875,0,0,0,0,0
4.603,-6.875,0,0,0,0,0
4.604,-7.125,0,0,0,0,0
4.605,-7,0,0,0,0,0
4.606,-6.9375,0,0,0,0,0
4.607,-6.6875,0,0,0,0,0
4.608,-7.3125,0,0,0,0,0
4.609,-8.125,0,0,0,0,0
4.61,-8.4375,0,0,0,0,0
4.611,-8.875,0,0,0,0,0
4.612,-8.375,0,0,0,0,0
4.613,-8.25,0,0,0,0,0
4.614,-8.4375,0,0,0,0,0
4.615,-8.875,0,0,0,0,0
4.616,-9.5625,0,0,0,0,0
4.617,-10,0,0,0,0,0
4.618,-9.6875,0,0,0,0,0
4.619,-9.375,0,0,0,0,0
4.62,-9.25,0,0,0,0,0
4.621,-9.0625,0,0,0,0,0
4.622,-8.8125,0,0,0,0,0
4.623,-8.75,0,0,0,0,0
4.624,-9.125,0,0,0,0,0
4.625,-8.75,0,0,0,0,0
4.626,-9.625,0,0,0,0,0
4.627,-9.5,0,0,0,0,0
4.628,-9,0,0,0,0,0
4.629,-8.875,0,0,0,0,0
4.63,-9.1875,0,0,0,1,0
4.631,-9.0625,0,0,0,0,0
4.632,-9.375,0,0,0,0,0
4.633,-9.8125,0,0,0,0,0
4.634,-9.5625,0,0,0,0,0
4.635,-9.5,0,0,0,0,0
4.636,-9.5625,0,0,0,0,0
4.637,-9.6875,0,0,0,0,0
4.638,-9.4375,0,0,0,0,0
4.639,-9.5,0,0,0,0,0
4.64,-9.3125,0,0,0,0,0
4.641,-9.375,0,0,0,0,0
4.642,-9.5625,0,0,0,0,0
4.643,-9.0625,0,0,0,0,0
4.644,-9.25,0,0,0,0,0
4.645,-9.6875,0,0,0,0,0
4.646,-10,0,0,0,0,0
4.647,-9.8125,0,0,0,0,0
4.648,-9.25,0,0,0,0,0
4.649,-8.875,0,0,0,0,0
4.65,-8.25,0,0,0,0,0
4.651,-8.125,0,0,0,0,0
4.652,-8,0,0,0,0,0
4.653,-8.125,0,0,0,0,0
4.654,-8.25,0,0,0,0,0
4.655,-8.4375,0,0,0,0,0
4.656,-9.5,0,0,0,0,0
4.657,-10.75,0,0,0,0,0
4.658,-10.063,0,0,0,0,0
4.659,-10,0,0,0,0,0
4.66,-9.25,0,0,0,0,0
4.661,-8.4375,0,0,0,0,0
4.662,-8.3125,0,0,0,0,0
4.663,-8.75,0,0,0,0,0
4.664,-8.625,0,0,0,0,0
4.665,-8.5625,0,0,0,0,0
4.666,-8.6875,0,0,0,0,0
4.667,-8.5625,0,0,0,0,0
4.668,-9.125,0,0,0,0,0
4.669,-9.1875,0,0,0,0,0
4.67,-9.0625,0,0,0,0,0
4.671,-8.875,0,0,0,0,0
4.672,-8.25,0,0,0,0,0
4.673,-7.8125,0,0,0,0,0
4.674,-7.8125,0,0,0,0,0
4.675,-7.5,0,0,0,0,0
4.676,-6.875,0,0,0,0,0
4.677,-6.5625,0,0,0,0,0
4.678,-6.8125,0,0,0,0,0
4.679,-6.875,0,0,0,0,0
4.68,-7.5,0,0,0,0,0
4.681,-7.9375,0,0,0,0,0
4.682,-7.375,0,0,0,0,0
4.683,-7,0,0,0,0,0
4.684,-7.3125,0,0,0,0,0
4.685,-7.5,0,0,0,0,0
4.686,-6.8125,0,0,0,0,0
4.687,-6.25,0,0,0,0,0
4.688,-6,0,0,0,0,0
4.689,-6.25,0,0,0,0,0
4.69,-6.0625,0,0,0,0,0
4.691,-6.0625,0,0,0,0,0
4.692,-6.0625,0,0,0,0,0
4.693,-5.9375,0,0,0,0,0
4.694,-5.75,0,0,0,0,0
4.695,-6.0625,0,0,0,0,0
4.696,-5.125,0,0,0,0,0
4.697,-4.6875,0,0,0,0,0
4.698,-4.375,0,0,0,0,0
4.699,-4.5,0,0,0,0,0
4.7,-4.5,0,0,0,0,0
4.701,-4.375,0,0,0,0,0
4.702,-4.8125,0,0,0,0,0
4.703,-5,0,0,0,0,0
4.704,-5.1875,0,0,0,0,0
4.705,-5.125,0,0,0,0,0
4.706,-5.3125,0,0,0,0,0
4.707,-5.625,0,0,0,0,0
4.708,-5.5625,0,0,0,0,0
4.709,-5.625,0,0,0,0,0
4.71,-5.1875,0,0,0,0,0
4.711,-5.3125,0,0,0,0,0
4.712,-5.375,0,0,0,0,0
4.713,-5.3125,0,0,0,0,1
4.714,-5.4375,0,0,0,0,0
4.715,-5.3125,0,0,0,0,0
4.716,-5.0625,0,0,0,0,0
4.717,-5.125,0,0,0,0,0
4.718,-4.1875,0,0,0,0,0
4.719,-3.75,0,0,0,0,0
4.72,-3.5,0,0,0,0,0
4.721,-3.25,0,0,0,0,0
4.722,-3.5625,0,0,0,0,0
4.723,-3.875,0,0,0,0,0
4.724,-4.125,0,0,0,0,0
4.725,-4.5,0,0,0,0,0
4.726,-4.6875,0,0,0,0,0
4.727,-4.5,0,0,0,0,0
4.728,-4.0625,0,0,0,0,0
4.729,-3.875,0,0,0,0,0
4.73,-4.25,0,0,0,0,0
4.731,-4.0625,0,0,0,0,0
4.732,-4.375,0,0,0,0,0
4.733,-5,0,0,0,0,0
4.734,-5.375,0,0,0,0,0
4.735,-5.9375,0,0,0,0,0
4.736,-5.75,0,0,0,0,0
4.737,-5.75,0,0,0,0,0
4.738,-5.1875,0,0,0,0,0
4.739,-5.125,0,0,0,0,0
4.74,-4.8125,0,0,0,0,0
4.741,-4.1875,0,0,0,0,0
4.742,-4.25,0,0,0,0,0
4.743,-4.0625,0,0,0,0,0
4.744,-4.875,0,0,0,0,0
4.745,-5.4375,0,0,0,0,0
4.746,-5.25,0,0,0,0,0
4.747,-5.9375,0,0,0,0,0
4.748,-5.375,0,0,0,0,0
4.749,-5.125,0,0,0,0,0
4.75,-4.5625,0,0,0,0,0
4.751,-4.0625,0,0,0,0,0
4.752,-3.9375,0,0,0,0,0
4.753,-4.375,0,0,0,0,0
4.754,-4.0625,0,0,0,0,0
4.755,-3.875,0,0,0,0,0
4.756,-4.125,0,0,0,0,0
4.757,-4.375,0,0,0,0,0
4.758,-4.75,0,0,0,0,0
4.759,-5,0,0,0,0,0
4.76,-4.9375,0,0,0,0,0
4.761,-5,0,0,0,0,0
4.762,-5.25,0,0,0,0,0
4.763,-5.125,0,0,0,0,0
4.764,-4.875,0,0,0,0,0
4.765,-4.6875,0,0,0,0,0
4.766,-5.25,0,0,0,0,0
4.767,-5,0,0,0,0,0
4.768,-5,0,0,0,0,0
4.769,-4.8125,0,0,0,0,0
4.77,-4.4375,0,0,0,0,0
4.771,-4.1875,0,0,0,0,0
4.772,-4.125,0,0,0,0,0
4.773,-4.5,0,0,0,0,0
4.774,-4.8125,0,0,0,0,0
4.775,-5.125,0,0,0,0,0
4.776,-5.375,0,0,0,0,0
4.777,-5.3125,0,0,0,0,0
4.778,-4.8125,0,0,0,0,0
4.779,-5,0,0,0,0,0
4.78,-4.75,0,0,0,0,0
4.781,-4.0625,0,0,0,0,0
4.782,-4.6875,0,0,0,0,0
4.783,-5.125,0,0,0,0,0
4.784,-4.875,0,0,0,0,0
4.785,-4.6875,0,0,0,0,0
4.786,-4.5,0,0,0,0,0
4.787,-4.5,0,0,0,0,0
4.788,-4.625,0,0,0,0,0
4.789,-4.6875,0,0,0,0,0
4.79,-5.125,0,0,0,0,0
4.791,-5.625,0,0,0,0,0
4.792,-5.6875,0,0,0,0,0
4.793,-5.625,0,0,0,0,0
4.794,-5.3125,0,0,0,0,0
4.795,-4.6875,0,0,0,0,0
4.796,-4.6875,0,0,0,0,0
4.797,-4.5,0,0,0,0,0
4.798,-4.4375,0,0,0,0,0
4.799,-4.5,0,0,0,0,0
4.8,-4.4375,0,0,0,0,0
4.801,-4.375,0,0,0,0,0
4.802,-4.5625,0,0,0,0,0
4.803,-4.6875,0,0,0,0,0
4.804,-5.0625,0,0,0,0,0
4.805,-5.625,0,0,0,0,0
4.806,-5.6875,0,0,0,0,0
4.807,-5.3125,0,0,0,0,0
4.808,-5.375,0,0,0,0,0
4.809,-5.3125,0,0,0,0,0
4.81,-5.25,0,0,0,0,0
4.811,-5.125,0,0,0,0,0
4.812,-5.0625,0,0,0,0,0
4.813,-5,0,0,0,0,0
4.814,-4.875,0,0,0,0,0
4.815,-5.3125,0,0,0,0,0
4.816,-5.375,0,0,0,0,0
4.817,-5.9375,0,0,0,0,0
4.818,-5.3125,0,0,0,0,0
4.819,-5.125,0,0,0,0,0
4.82,-4.8125,0,0,0,0,0
4.821,-4.0625,0,0,0,0,0
4.822,-3.625,0,0,0,0,0
4.823,-3.4375,0,0,0,0,0
4.824,-3.6875,0,0,0,0,0
4.825,-3.75,0,0,0,0,0
4.826,-4.1875,0,0,0,0,0
4.827,-4.8125,0,0,0,0,0
4.828,-5.375,0,0,0,0,0
4.829,-5.75,0,0,0,0,0
4.83,-5.75,0,0,0,0,0
4.831,-5.9375,0,0,0,0,0
4.832,-6.0625,0,0,0,0,0
4.833,-5.75,0,0,0,0,0
4.834,-6,0,0,0,0,0
4.835,-6.25,0,0,0,0,0
4.836,-6.4375,0,0,0,0,0
4.837,-6.5625,0,0,0,0,0
4.838,-6.5625,0,0,0,0,0
4.839,-6.6875,0,0,0,0,0
4.84,-5.625,0,0,0,0,0
4.841,-4.6875,0,0,0,0,0
4.842,-4.6875,0,0,0,0,0
4.843,-4.1875,0,0,0,0,0
4.844,-4.5625,0,0,0,0,0
4.845,-4.5,0,0,0,0,0
4.846,-4.125,0,0,0,0,0
4.847,-3.75,0,0,0,0,0
4.848,-3.8125,0,0,0,0,0
4.849,-4.5,0,0,0,0,0
4.85,-4.1875,0,0,0,0,0
4.851,-4.0625,0,0,0,0,0
4.852,-4.3125,0,0,0,0,0
4.853,-4.1875,0,0,0,0,0
4.854,-4,0,0,0,0,0
4.855,-4.1875,0,0,0,0,0
4.856,-4.75,0,0,0,0,0
4.857,-4.8125,0,0,0,0,0
4.858,-5.125,0,0,0,0,0
4.859,-5.625,0,0,0,0,0
4.86,-5.4375,0,0,0,0,0
4.861,-5.4375,0,0,0,0,0
4.862,-5,0,0,0,0,0
4.863,-5,0,0,0,0,0
4.864,-4.6875,0,0,0,0,0
4.865,-5.125,0,0,0,0,0
4.866,-5.1875,0,0,0,0,0
4.867,-5.75,0,0,0,0,0
4.868,-5.4375,0,0,0,0,0
4.869,-5.3125,0,0,0,0,0
4.87,-4.9375,0,0,0,0,0
4.871,-4.375,0,0,0,0,0
4.872,-4.0625,0,0,0,0,0
4.873,-3.75,0,0,0,0,0
4.874,-3.75,0,0,0,0,0
4.875,-3.4375,0,0,0,0,0
4.876,-4.75,0,0,0,0,0
4.877,-6.0625,0,0,0,0,0
4.878,-6.0625,0,0,0,0,0
4.879,-5.9375,0,0,0,0,0
4.88,-6.0625,0,0,0,0,0
4.881,-6.25,0,0,0,0,0
4.882,-6.625,0,0,0,0,0
4.883,-6.6875,0,0,0,0,0
4.884,-6.625,0,0,0,0,0
4.885,-6.5625,0,0,0,0,0
4.886,-6.1875,0,0,0,0,0
4.887,-5.625,0,0,0,0,0
4.888,-5.4375,0,0,0,0,0
4.889,-5.3125,0,0,0,0,0
4.89,-5.75,0,0,0,0,0
4.891,-6.25,0,0,0,0,0
4.892,-6.6875,0,0,0,0,0
4.893,-7.5,0,0,0,0,0
4.894,-7.625,0,0,0,0,0
4.895,-8.25,0,0,0,0,0
4.896,-7.9375,0,0,0,0,0
4.897,-8.125,0,0,0,0,0
4.898,-8.125,0,0,0,0,0
4.899,-8.125,0,0,0,0,0
4.9,-7.9375,0,0,0,0,0
4.901,-7.8125,0,0,0,0,0
4.902,-7.375,0,0,0,0,0
4.903,-6.875,0,0,0,0,0
4.904,-7.0625,0,0,0,0,0
4.905,-7.3125,0,0,0,0,0
4.906,-7.625,0,0,0,0,0
4.907,-8.5625,0,0,0,0,0
4.908,-8.1875,0,0,0,0,0
4.909,-8.4375,0,0,0,0,0
4.91,-8.125,0,0,0,0,0
4.911,-7.8125,0,0,0,0,0
4.912,-7.8125,0,0,0,0,0
4.913,-7.8125,0,0,0,0,0
4.914,-8.5,0,0,0,0,0
4.915,-8.5625,0,0,0,0,0
4.916,-8.8125,0,0,0,0,0
4.917,-9.0625,0,0,0,0,0
4.918,-9.5625,0,0,0,0,0
4.919,-9.375,0,0,0,0,0
4.92,-9.125,0,0,0,0,0
4.921,-9.1875,0,0,0,0,0
4.922,-9.1875,0,0,0,0,0
4.923,-9.0625,0,0,0,0,0
4.924,-9.6875,0,0,0,0,0
4.925,-9.5,0,0,0,0,0
4.926,-9.6875,0,0,0,0,0
4.927,-10,0,0,0,0,0
4.928,-9.6875,0,0,0,0,0
4.929,-9.5,0,0,0,0,0
4.93,-9.125,0,0,0,0,0
4.931,-9.1875,0,0,0,0,0
4.932,-9.25,0,0,0,0,0
4.933,-9.0625,0,0,0,0,0
4.934,-9.5625,0,0,0,0,0
4.935,-9.6875,0,0,0,0,0
4.936,-9.125,0,0,0,0,0
4.937,-8.125,0,0,0,0,0
4.938,-8.5625,0,0,0,0,0
4.939,-8.5625,0,0,0,0,0
4.94,-8.625,0,0,0,0,0
4.941,-9.375,0,0,0,0,0
4.942,-9.125,0,0,0,0,0
4.943,-9.0625,0,0,0,0,0
4.944,-8.8125,0,0,0,0,0
4.945,-9.1875,0,0,0,0,0
4.946,-9.1875,0,0,0,0,0
4.947,-9.0625,0,0,0,0,0
4.948,-8.5625,0,0,0,0,0
4.949,-8.4375,0,0,0,0,0
4.95,-7.9375,0,0,0,0,0
4.951,-7.8125,0,0,0,0,0
4.952,-7.625,0,0,0,0,0
4.953,-7.3125,0,0,0,0,0
4.954,-7.4375,0,0,0,0,0
4.955,-6.6875,0,0,0,0,0
4.956,-6.375,0,0,0,0,0
4.957,-6.375,0,0,0,0,0
4.958,-6.375,0,0,0,0,0
4.959,-6.375,0,0,0,0,0
4.96,-6.375,0,0,0,0,0
4.961,-6.6875,0,0,0,0,0
4.962,-6.25,0,0,0,0,0
4.963,-6.25,0,0,0,0,0
4.964,-5.8125,0,0,0,0,0
4.965,-5.9375,0,0,0,0,0
4.966,-5,0,0,0,0,0
4.967,-4.375,0,0,0,0,0
4.968,-4.6875,0,0,0,0,0
4.969,-4.6875,0,0,0,0,0
4.97,-5.25,0,0,0,0,0
4.971,-5.9375,0,0,0,0,0
4.972,-6.0625,0,0,0,0,0
4.973,-6.0625,0,0,0,0,0
4.974,-5.625,0,0,0,0,0
4.975,-4.8125,0,0,0,0,0
4.976,-4.625,0,0,0,0,0
4.977,-4.5,0,0,0,0,0
4.978,-4.6875,0,0,0,0,0
4.979,-4.5,0,0,0,0,0
4.98,-4.125,0,0,0,0,0
4.981,-3.5625,0,0,0,0,0
4.982,-3.1875,0,0,0,0,0
4.983,-3.125,0,0,0,0,0
4.984,-3.5,0,0,0,0,0
4.985,-3.5625,0,0,0,0,0
4.986,-2.75,0,0,0,0,0
4.987,-2.3125,0,0,0,0,0
4.988,-1.9375,0,0,0,0,0
4.989,-2,0,0,0,0,0
4.99,-2.3125,0,0,0,0,0
4.991,-3.125,0,0,0,0,0
4.992,-3.4375,0,0,0,0,0
4.993,-3.25,0,0,0,0,0
4.994,-3.6875,0,0,0,0,0
4.995,-3.5625,0,0,0,0,0
4.996,-4.1875,0,0,0,0,0
4.997,-4.0625,0,0,0,0,0
4.998,-4.125,0,0,0,0,0
4.999,-4.1875,0,0,0,0,0
5,-4.125,0,0,0,0,0
5.001,-3.75,0,0,0,0,0
5.002,-3.0625,0,0,0,0,0
5.003,-2.9375,0,0,0,0,0
5.004,-2.9375,0,0,0,0,0
5.005,-3.125,0,0,0,0,0
5.006,-2.4375,0,0,0,0,0
5.007,-1.875,0,0,0,0,0
5.008,-1.75,0,0,0,0,0
5.009,-1.6875,0,0,0,0,0
5.01,-2.4375,0,0,0,0,0
5.011,-3.125,0,0,0,0,0
5.012,-3.4375,0,0,0,0,0
5.013,-3.75,0,0,0,0,0
5.014,-3.375,0,0,0,0,0
5.015,-2.5,0,0,0,0,0
5.016,-2.625,0,0,0,0,0
5.017,-2.3125,0,0,0,0,0
5.018,-2.875,0,0,0,0,0
5.019,-3.25,0,0,0,0,0
5.02,-3.3125,0,0,0,0,0
5.021,-3.25,0,0,0,0,0
5.022,-3.625,0,0,0,0,0
5.023,-3.875,0,0,0,0,0
5.024,-3.625,0,0,0,0,0
5.025,-3.875,0,0,0,0,0
5.026,-3.5,0,0,0,0,0
5.027,-3.5625,0,0,0,0,0
5.028,-3.5,0,0,0,0,0
5.029,-3.4375,0,0,0,0,0
5.03,-3.125,0,0,0,0,0
5.031,-3.125,0,0,0,0,0
5.032,-3.0625,0,0,0,0,0
5.033,-2.625,0,0,0,0,0
5.034,-2.5625,0,0,0,0,0
5.035,-2.1875,0,0,0,0,0
5.036,-2.0625,0,0,0,0,0
5.037,-2.625,0,0,0,0,0
5.038,-3.5,0,0,0,0,0
5.039,-3.875,0,0,0,0,0
5.04,-3.3125,0,0,0,0,0
5.041,-2.3125,0,0,0,0,0
5.042,-2.875,0,0,0,0,0
5.043,-3.4375,0,0,0,0,0
5.044,-2.5,0,0,0,0,0
5.045,-2.3125,0,0,0,0,0
5.046,-1.875,0,0,0,0,0
5.047,-2,0,0,0,0,0
5.048,-1.9375,0,0,0,0,0
5.049,-2.1875,0,0,0,0,0
5.05,-2.1875,0,0,0,0,0
5.051,-2.5,0,0,0,0,0
5.052,-2.625,0,0,0,0,0
5.053,-2.1875,0,0,0,0,0
5.054,-3.125,0,0,0,0,0
5.055,-3.25,0,0,0,0,0
5.056,-3.625,0,0,0,0,0
5.057,-3.25,0,0,0,0,0
5.058,-2.625,0,0,0,0,0
5.059,-2.3125,0,0,0,0,0
5.06,-1.6875,0,0,0,0,0
5.061,-1.6875,0,0,0,0,0
5.062,-1.75,0,0,0,0,0
5.063,-2,1,0,0,0,0
5.064,-1.6875,0,0,0,0,0
5.065,-1.875,0,0,0,0,0
5.066,-1.9375,0,0,0,0,0
5.067,-2.5,0,0,0,0,0
5.068,-2.4375,0,0,0,0,0
5.069,-2.5,0,0,0,0,0
5.07,-3.125,0,0,0,0,0
5.071,-3.75,0,0,0,0,0
5.072,-4.375,0,0,0,0,0
5.073,-4.5,0,0,0,0,0
5.074,-4.625,0,0,0,0,0
5.075,-4.5,0,0,0,0,0
5.076,-4.625,0,0,0,0,0
5.077,-4.5,0,0,0,0,0
5.078,-5.75,0,0,0,0,0
5.079,-6.375,0,0,0,0,0
5.08,-6.6875,0,0,0,0,0
5.081,-7.1875,0,0,0,0,0
5.082,-7.8125,0,0,0,0,0
5.083,-8.75,0,0,0,0,0
5.084,-9.9375,0,0,0,0,0
5.085,-11.375,0,0,0,0,0
5.086,-12.375,0,0,0,0,0
5.087,-13.75,0,0,0,0,0
5.088,-14.688,0,0,0,0,0
5.089,-15.75,0,0,0,0,0
5.09,-17.813,0,0,0,0,0
5.091,-19.688,0,0,0,0,0
5.092,-22.563,0,0,0,0,0
5.093,-25,0,0,0,0,0
5.094,-27.063,0,0,0,0,0
5.095,-28.875,0,0,0,0,0
5.096,-29.813,0,0,0,0,0
5.097,-30.625,0,0,0,0,0
5.098,-31,0,0,0,0,0
5.099,-31.063,0,0,0,0,0
5.1,-31.875,0,1,0,0,0
5.101,-32.813,0,0,0,0,0
5.102,-33.5,0,0,0,0,0
5.103,-34.063,0,0,0,0,0
5.104,-34.563,0,0,0,0,0
5.105,-34.813,0,0,0,0,0
5.106,-34.688,0,0,0,0,0
5.107,-34.063,0,0,0,0,0
5.108,-31.875,0,0,0,0,0
5.109,-29.813,0,0,0,0,0
5.11,-28.188,0,0,0,0,0
5.111,-25,0,0,0,0,0
5.112,-20.375,0,0,0,0,0
5.113,-16.563,0,0,0,0,0
5.114,-13.563,0,0,0,0,0
5.115,-10.938,0,0,0,0,0
5.116,-7.875,0,0,0,0,0
5.117,-4.5,0,0,0,0,0
5.118,-1.375,0,0,0,0,0
5.119,0.5,0,0,0,0,0
5.12,2.3125,0,0,0,0,0
5.121,3.125,0,0,0,0,0
5.122,2.75,0,0,0,0,0
5.123,2.0625,0,0,0,0,0
5.124,1.5,0,0,0,0,0
5.125,1.4375,0,0,0,0,0
5.126,2.1875,0,0,0,0,0
5.127,3.125,0,0,0,0,0
5.128,3.8125,0,0,0,0,0
5.129,4.875,0,0,0,0,0
5.13,5.375,0,0,0,0,0
5.131,5.625,0,0,0,0,0
5.132,5.5625,0,0,0,0,0
5.133,5,0,0,0,0,0
5.134,5.1875,0,0,0,0,0
5.135,5,0,0,0,0,0
5.136,5.5625,0,0,0,0,0
5.137,5.8125,0,0,0,0,0
5.138,5.625,0,0,0,0,0
5.139,5.3125,0,0,0,0,0
5.14,4.9375,0,0,0,0,0
5.141,4.875,0,0,0,0,0
5.142,5,0,0,0,0,0
5.143,5.1875,0,0,0,0,0
5.144,5,0,0,0,0,0
5.145,4.6875,0,0,0,0,0
5.146,4.0625,0,0,0,0,0
5.147,3.4375,0,0,0,0,0
5.148,3.625,0,0,0,0,0
5.149,3.625,0,0,0,0,0
5.15,3.0625,0,0,0,0,0
5.151,2.8125,0,0,0,0,0
5.152,3.375,0,0,0,0,0
5.153,3.125,0,0,0,0,0
5.154,3.1875,0,0,0,0,0
5.155,3.125,0,0,0,0,0
5.156,3,0,0,0,0,0
5.157,2.5,0,0,0,0,0
5.158,2.875,0,0,0,0,0
5.159,3.4375,0,0,0,0,0
5.16,3.5625,0,0,0,0,0
5.161,3.125,0,0,0,0,0
5.162,3.3125,0,0,0,0,0
5.163,3.3125,0,0,0,0,0
5.164,3.9375,0,0,0,0,0
5.165,4.375,0,0,0,0,0
5.166,5.0625,0,0,0,0,0
5.167,5.625,0,0,0,0,0
5.168,5.4375,0,0,0,0,0
5.169,5.5,0,0,0,0,0
5.17,5.125,0,0,0,0,0
5.171,5.1875,0,0,0,0,0
5.172,5.5625,0,0,0,0,0
5.173,5.3125,0,0,0,0,0
5.174,5.3125,0,0,0,0,0
5.175,4.6875,0,0,0,0,0
5.176,4.8125,0,0,0,0,0
5.177,4.875,0,0,0,0,0
5.178,5.25,0,0,0,0,0
5.179,5,0,0,0,0,0
5.18,5.3125,0,0,0,0,0
5.181,5.9375,0,0,0,0,0
5.182,6.5,0,0,0,0,0
5.183,7.0625,0,0,0,0,0
5.184,7.875,0,0,0,0,0
5.185,8.625,0,0,0,0,0
5.186,8.625,0,0,0,0,0
5.187,8.9375,0,0,0,0,0
5.188,8.625,0,0,0,0,0
5.189,8.3125,0,0,0,0,0
5.19,7.3125,0,0,0,0,0
5.191,6.4375,0,0,0,0,0
5.192,6.375,0,0,0,0,0
5.193,6.125,0,0,0,0,0
5.194,6.625,0,0,0,0,0
5.195,7.0625,0,0,0,0,0
5.196,6.9375,0,0,0,0,0
5.197,6.875,0,0,0,0,0
5.198,6.4375,0,0,0,0,0
5.199,5.3125,0,0,0,0,0
5.2,5.1875,0,0,0,0,0
5.201,4.375,0,0,0,0,0
5.202,3.375,0,0,0,0,0
5.203,2.8125,0,0,0,0,0
5.204,2.6875,0,0,0,0,0
5.205,2.8125,0,0,0,0,0
5.206,1.9375,0,0,0,0,0
5.207,1.25,0,0,0,0,0
5.208,0.875,0,0,0,0,0
5.209,0.8125,0,0,0,0,0
5.21,0.5,0,0,0,0,0
5.211,0.1875,0,0,0,0,0
5.212,0.5625,0,0,0,0,0
5.213,0,0,0,0,0,0
5.214,-0.125,0,0,0,0,0
5.215,-0.4375,0,0,0,0,0
5.216,-0.875,0,0,0,0,0
5.217,-1.5625,0,0,0,0,0
5.218,-2.1875,0,0,0,0,0
5.219,-2.9375,0,0,0,0,0
5.22,-2.875,0,0,0,0,0
5.221,-2.8125,0,0,0,0,0
5.222,-3.1875,0,0,0,0,0
5.223,-3.25,0,0,0,0,0
5.224,-3.5,0,0,0,0,0
5.225,-3.5625,0,0,0,0,0
5.226,-4.125,0,0,0,0,0
5.227,-4.0625,0,0,0,0,0
5.228,-4.125,0,0,0,0,0
5.229,-4.375,0,0,0,0,0
5.23,-4,0,0,0,0,0
5.231,-4.1875,0,0,0,0,0
5.232,-4.4375,0,0,0,0,0
5.233,-4.6875,0,0,0,0,0
5.234,-4.8125,0,0,0,0,0
5.235,-5,0,0,0,0,0
5.236,-5,0,0,1,0,0
5.237,-5,0,0,0,0,0
5.238,-4.9375,0,0,0,0,0
5.239,-4.375,0,0,0,0,0
5.24,-3.4375,0,0,0,0,0
5.241,-2.8125,0,0,0,0,0
5.242,-3.375,0,0,0,0,0
5.243,-2.9375,0,0,0,0,0
5.244,-3,0,0,0,0,0
5.245,-3.4375,0,0,0,0,0
5.246,-3.8125,0,0,0,0,0
5.247,-3.75,0,0,0,0,0
5.248,-3.875,0,0,0,0,0
5.249,-3.875,0,0,0,0,0
5.25,-4.125,0,0,0,0,0
5.251,-4.0625,0,0,0,0,0
5.252,-3.375,0,0,0,0,0
5.253,-3.5625,0,0,0,0,0
5.254,-3.625,0,0,0,0,0
5.255,-4.6875,0,0,0,0,0
5.256,-4.25,0,0,0,0,0
5.257,-4.6875,0,0,0,0,0
5.258,-4.75,0,0,0,0,0
5.259,-4.6875,0,0,0,0,0
5.26,-5.125,0,0,0,0,0
5.261,-5.4375,0,0,0,0,0
5.262,-5.3125,0,0,0,0,0
5.263,-5.625,0,0,0,0,0
5.264,-5.125,0,0,0,0,0
5.265,-4.6875,0,0,0,0,0
5.266,-5.125,0,0,0,0,0
5.267,-5,0,0,0,0,0
5.268,-4.75,0,0,0,0,0
5.269,-4.6875,0,0,0,0,0
