0,0.3125,0,0,0,0,0
0.001,1.875,0,0,0,0,0
0.002,2.1875,0,0,0,0,0
0.003,2.5,0,0,0,0,0
0.004,2.1875,0,0,0,0,0
0.005,1.875,0,0,0,0,0
0.006,2.1875,0,0,0,0,0
0.007,2.5,0,0,0,0,0
0.008,2.5,0,0,0,0,0
0.009,2.5,0,0,0,0,0
0.01,2.5,0,0,0,0,0
0.011,2.5,0,0,0,0,0
0.012,2.1875,0,0,0,0,0
0.013,1.875,0,0,0,0,0
0.014,2.1875,0,0,0,0,0
0.015,2.5,0,0,0,0,0
0.016,1.5625,0,0,0,0,0
0.017,1.875,0,0,0,0,0
0.018,1.5625,0,0,0,0,0
0.019,1.25,0,0,0,0,0
0.02,0.9375,0,0,0,0,0
0.021,0.625,0,0,0,0,0
0.022,0.625,0,0,0,0,0
0.023,0.625,0,0,0,0,0
0.024,0.9375,0,0,0,0,0
0.025,0.625,0,0,0,0,0
0.026,1.25,0,0,0,0,0
0.027,1.25,0,0,0,0,0
0.028,0.625,0,0,0,0,0
0.029,1.25,0,0,0,0,0
0.03,1.25,0,0,0,0,0
0.031,1.25,0,0,0,0,0
0.032,1.25,0,0,0,0,0
0.033,1.25,0,0,0,0,0
0.034,1.25,0,0,0,0,0
0.035,1.25,0,0,0,0,0
0.036,1.25,0,0,0,0,0
0.037,0.625,0,0,0,0,0
0.038,0.625,0,0,0,0,0
0.039,0.625,0,0,0,0,0
0.04,0.9375,0,0,0,0,0
0.041,1.25,0,0,0,0,0
0.042,0.9375,0,0,0,0,0
0.043,0.625,0,0,0,0,0
0.044,0.3125,0,0,0,0,0
0.045,0,0,0,0,0,0
0.046,0.625,0,0,0,0,0
0.047,0.625,0,0,0,0,0
0.048,0.3125,0,0,0,0,0
0.049,0.625,0,0,0,0,0
0.05,0.625,0,0,0,0,0
0.051,0.625,0,0,0,0,0
0.052,0,0,0,0,0,0
0.053,0.625,0,0,0,0,0
0.054,0.625,0,0,0,0,0
0.055,0.625,0,0,0,0,0
0.056,0.3125,0,0,0,0,0
0.057,0.625,0,0,0,0,0
0.058,0,0,0,0,0,0
0.059,-0.625,0,0,0,0,0
0.06,0.625,0,0,0,0,0
0.061,0.625,0,0,0,0,0
0.062,0.9375,0,0,0,0,0
0.063,0.625,0,0,0,0,0
0.064,0.625,0,0,0,0,0
0.065,1.25,0,0,0,0,0
0.066,1.25,0,0,0,0,0
0.067,1.25,0,0,0,0,0
0.068,1.25,0,0,0,0,0
0.069,1.25,0,0,0,0,0
0.07,0.9375,0,0,0,0,0
0.071,0.625,0,0,0,0,0
0.072,0.625,0,0,0,0,0
0.073,0.625,0,0,0,0,0
0.074,0.625,0,0,0,0,0
0.075,0.625,0,0,0,0,0
0.076,0.9375,0,0,0,0,0
0.077,1.25,0,0,0,0,0
0.078,1.25,0,0,0,0,0
0.079,1.25,0,0,0,0,0
0.08,0.9375,0,0,0,0,0
0.081,0.625,0,0,0,0,0
0.082,0.625,0,0,0,0,0
0.083,0,0,0,0,0,0
0.084,0,0,0,0,0,0
0.085,0,0,0,0,0,0
0.086,0.3125,0,0,0,0,0
0.087,0,0,0,0,0,0
0.088,0.3125,0,0,0,0,0
0.089,0.625,0,0,0,0,0
0.09,0.625,0,0,0,0,0
0.091,0.625,0,0,0,0,0
0.092,0.3125,0,0,0,0,0
0.093,0,0,0,0,0,0
0.094,0.625,0,0,0,0,0
0.095,0.625,0,0,0,0,0
0.096,0,0,0,0,0,0
0.097,0,0,0,0,0,0
0.098,0,0,0,0,0,0
0.099,-0.625,0,0,0,0,0
0.1,-0.3125,0,0,0,0,0
0.101,0,0,0,0,0,0
0.102,0,0,0,0,0,0
0.103,0,0,0,0,0,0
0.104,0,0,0,0,0,0
0.105,0,0,0,0,0,0
0.106,0,0,0,0,0,0
0.107,0,0,0,0,0,0
0.108,0,0,0,0,0,0
0.109,-0.625,0,0,0,0,0
0.11,0,0,0,0,0,0
0.111,0,0,0,0,0,0
0.112,-0.3125,0,0,0,0,0
0.113,-0.625,0,0,0,0,0
0.114,-0.3125,0,0,0,0,0
0.115,0,0,0,0,0,0
0.116,-0.3125,0,0,0,0,0
0.117,-0.625,0,0,0,0,0
0.118,-0.625,0,0,0,0,0
0.119,-0.625,0,0,0,0,0
0.12,-0.625,0,0,0,0,0
0.121,-0.625,0,0,0,0,0
0.122,-0.9375,0,0,0,0,0
0.123,-1.25,0,0,0,0,0
0.124,-0.625,0,0,0,0,0
0.125,0,0,0,0,0,0
0.126,0,0,0,0,0,0
0.127,0,0,0,0,0,0
0.128,0,0,0,0,0,0
0.129,0,0,0,0,0,0
0.13,-0.9375,0,0,0,0,0
0.131,-0.625,0,0,0,0,0
0.132,-0.625,0,0,0,0,0
0.133,-0.625,0,0,0,0,0
0.134,-0.3125,0,0,0,0,0
0.135,0,0,0,0,0,0
0.136,0,0,0,0,0,0
0.137,0,0,0,0,0,0
0.138,-0.3125,0,0,0,0,0
0.139,0,0,0,0,0,0
0.14,0.625,0,0,0,0,0
0.141,0.625,0,0,0,0,0
0.142,0.3125,0,0,0,0,0
0.143,0,0,0,0,0,0
0.144,0,0,0,0,0,0
0.145,0,0,0,0,0,0
0.146,0.625,0,0,0,0,0
0.147,0.625,0,0,0,0,0
0.148,0.625,0,0,0,0,0
0.149,0.625,0,0,0,0,0
0.15,1.25,0,0,0,0,0
0.151,1.25,0,0,0,0,0
0.152,1.5625,0,0,0,0,0
0.153,1.875,0,0,0,0,0
0.154,2.1875,0,0,0,0,0
0.155,1.875,0,0,0,0,0
0.156,2.5,0,0,0,0,0
0.157,2.5,0,0,0,0,0
0.158,2.5,0,0,0,0,0
0.159,2.5,0,0,0,0,0
0.16,2.8125,0,0,0,0,0
0.161,2.5,0,0,0,0,0
0.162,2.8125,0,0,0,0,0
0.163,3.125,0,0,0,0,0
0.164,4.0625,0,0,0,0,0
0.165,4.375,0,0,0,0,0
0.166,4.375,0,0,0,0,0
0.167,4.375,0,0,0,0,0
0.168,4.375,0,0,0,0,0
0.169,4.375,0,0,0,0,0
0.17,4.0625,0,0,0,0,0
0.171,3.75,0,0,0,0,0
0.172,3.4375,0,0,0,0,0
0.173,3.125,0,0,0,0,0
0.174,4.0625,0,0,0,0,0
0.175,4.375,0,0,0,0,0
0.176,3.75,0,0,0,0,0
0.177,4.375,0,0,0,0,0
0.178,4.6875,0,0,0,0,0
0.179,4.375,0,0,0,0,0
0.18,5,0,0,0,0,0
0.181,4.375,0,0,0,0,0
0.182,4.0625,0,0,0,0,0
0.183,4.375,0,0,0,0,0
0.184,4.375,0,0,0,0,0
0.185,4.375,0,0,0,0,0
0.186,4.375,0,0,0,0,0
0.187,4.375,0,0,0,0,0
0.188,4.0625,0,0,0,0,0
0.189,3.75,0,0,0,0,0
0.19,4.0625,0,0,0,0,0
0.191,4.375,0,0,0,0,0
0.192,4.0625,0,0,0,0,0
0.193,4.375,0,0,0,0,0
0.194,5,0,0,0,0,0
0.195,5,0,0,0,0,0
0.196,4.6875,0,0,0,0,0
0.197,5,0,0,0,0,0
0.198,4.375,0,0,0,0,0
0.199,4.375,0,0,0,0,0
0.2,3.4375,0,0,0,0,0
0.201,3.125,0,0,0,0,0
0.202,3.125,0,0,0,0,0
0.203,2.5,0,0,0,0,0
0.204,2.1875,0,0,0,0,0
0.205,1.875,0,0,0,0,0
0.206,2.1875,0,0,0,0,0
0.207,1.875,0,0,0,0,0
0.208,1.25,0,0,0,0,0
0.209,0,0,0,0,0,0
0.21,-0.3125,0,0,0,0,0
0.211,-0.625,0,0,0,0,0
0.212,-0.9375,0,0,0,0,0
0.213,-0.625,0,0,0,0,0
0.214,-0.625,0,0,0,0,0
0.215,-0.625,0,0,0,0,0
0.216,-0.625,0,0,0,0,0
0.217,-0.625,0,0,0,0,0
0.218,-0.625,0,0,0,0,0
0.219,-1.25,0,0,0,0,0
0.22,-1.5625,0,0,0,0,0
0.221,-1.875,0,0,0,0,0
0.222,-1.5625,0,0,0,0,0
0.223,-1.25,0,0,0,0,0
0.224,-0.9375,0,0,0,0,0
0.225,-0.625,0,0,0,0,0
0.226,-0.625,0,0,0,0,0
0.227,-0.625,0,0,0,0,0
0.228,-1.5625,0,0,0,0,0
0.229,-1.25,0,0,0,0,0
0.23,-1.5625,0,0,0,0,0
0.231,-1.875,0,0,0,0,0
0.232,-1.25,0,0,0,0,0
0.233,-1.25,0,0,0,0,0
0.234,-1.875,0,0,0,0,0
0.235,-1.875,0,0,0,0,0
0.236,-1.875,0,0,0,0,0
0.237,-1.875,0,0,0,0,0
0.238,-1.875,0,0,0,0,0
0.239,-1.875,0,0,0,0,0
0.24,-1.5625,0,0,0,0,0
0.241,-1.875,0,0,0,0,0
0.242,-2.1875,0,0,0,0,0
0.243,-1.875,0,0,0,0,0
0.244,-1.875,0,0,0,0,0
0.245,-1.875,0,0,0,0,0
0.246,-0.9375,0,0,0,0,0
0.247,-0.625,0,0,0,0,0
0.248,0,0,0,0,0,0
0.249,0.625,0,0,0,0,0
0.25,-0.625,0,0,0,0,0
0.251,-1.25,0,0,0,0,0
0.252,-1.25,0,0,0,0,0
0.253,-1.25,0,0,0,0,0
0.254,-1.25,0,0,0,0,0
0.255,-1.25,0,0,0,0,0
0.256,-0.9375,0,0,0,0,0
0.257,-0.625,0,0,0,0,0
0.258,-1.25,0,0,0,0,0
0.259,-1.25,0,0,0,0,0
0.26,-1.25,0,0,0,0,0
0.261,-1.25,0,0,0,0,0
0.262,-1.5625,0,0,0,0,0
0.263,-1.875,0,0,0,0,0
0.264,-1.5625,0,0,0,0,0
0.265,-1.25,0,0,0,0,0
0.266,-0.9375,0,0,0,0,0
0.267,-1.25,0,0,0,0,0
0.268,-0.9375,0,0,0,0,0
0.269,-1.25,0,0,0,0,0
0.27,-1.25,0,0,0,0,0
0.271,-0.625,0,0,0,0,0
0.272,-1.5625,0,0,0,0,0
0.273,-1.875,0,0,0,0,0
0.274,-2.1875,0,0,0,0,0
0.275,-2.5,0,0,0,0,0
0.276,-2.1875,0,0,0,0,0
0.277,-2.5,0,0,0,0,0
0.278,-2.1875,0,0,0,0,0
0.279,-1.875,0,0,0,0,0
0.28,-2.5,0,0,0,0,0
0.281,-2.5,0,0,0,0,0
0.282,-2.5,0,0,0,0,0
0.283,-2.5,0,0,0,0,0
0.284,-1.875,0,0,0,0,0
0.285,-1.875,0,0,0,0,0
0.286,-1.875,0,0,0,0,0
0.287,-1.875,0,0,0,0,0
0.288,-1.875,0,0,0,0,0
0.289,-1.875,0,0,0,0,0
0.29,-1.875,0,0,0,0,0
0.291,-1.875,0,0,0,0,0
0.292,-1.5625,0,0,0,0,0
0.293,-1.25,0,0,0,0,0
0.294,-1.5625,0,0,0,0,0
0.295,-1.875,0,0,0,0,0
0.296,-1.5625,0,0,0,0,0
0.297,-1.875,0,0,0,0,0
0.298,-2.1875,0,0,0,0,0
0.299,-1.875,0,0,0,0,0
0.3,-1.25,0,0,0,0,0
0.301,-1.875,1,0,0,0,0
0.302,-2.5,0,0,0,0,0
0.303,-2.5,0,0,0,0,0
0.304,-2.1875,0,0,0,0,0
0.305,-1.875,0,0,0,0,0
0.306,-2.1875,0,0,0,0,0
0.307,-2.5,0,0,0,0,0
0.308,-2.5,0,0,0,0,0
0.309,-2.5,0,0,0,0,0
0.31,-2.1875,0,0,0,0,0
0.311,-1.875,0,0,0,0,0
0.312,-1.875,0,0,0,0,0
0.313,-1.875,0,0,0,0,0
0.314,-1.875,0,0,0,0,0
0.315,-1.875,0,0,0,0,0
0.316,-2.1875,0,0,0,0,0
0.317,-2.5,0,0,0,0,0
0.318,-1.5625,0,0,0,0,0
0.319,-1.25,0,0,0,0,0
0.32,-1.25,0,0,0,0,0
0.321,-1.25,0,0,0,0,0
0.322,-0.9375,0,0,0,0,0
0.323,-0.625,0,0,0,0,0
0.324,0,0,0,0,0,0
0.325,0.625,0,0,0,0,0
0.326,0.9375,0,0,0,0,0
0.327,1.875,0,0,0,0,0
0.328,2.1875,0,0,0,0,0
0.329,2.5,0,0,0,0,0
0.33,2.1875,0,0,0,0,0
0.331,2.5,0,0,0,0,0
0.332,2.5,0,0,0,0,0
0.333,2.5,0,0,0,0,0
0.334,3.4375,0,0,0,0,0
0.335,3.75,0,0,0,0,0
0.336,4.6875,0,0,0,0,0
0.337,5.625,0,0,0,0,0
0.338,5.625,0,0,0,0,0
0.339,6.25,0,0,0,0,0
0.34,6.875,0,0,0,0,0
0.341,8.125,0,0,0,0,0
0.342,8.75,0,0,0,0,0
0.343,9.375,0,0,0,0,0
0.344,9.375,0,0,0,0,0
0.345,10.625,0,0,0,0,0
0.346,10.938,0,0,0,0,0
0.347,11.875,0,0,0,0,0
0.348,12.813,0,0,0,0,0
0.349,13.75,0,0,0,0,0
0.35,15.313,0,0,0,0,0
0.351,16.875,0,0,0,0,0
0.352,18.125,0,0,0,0,0
0.353,18.75,0,0,0,0,0
0.354,20,0,0,0,0,0
0.355,20,0,0,0,0,0
0.356,19.688,0,0,0,0,0
0.357,19.375,0,0,0,0,0
0.358,18.438,0,0,0,0,0
0.359,16.875,0,0,0,0,0
0.36,15.625,0,0,0,0,0
0.361,14.375,0,0,0,0,0
0.362,13.75,0,0,0,0,0
0.363,13.75,0,0,0,0,0
0.364,12.5,0,0,0,0,0
0.365,11.25,0,0,0,0,0
0.366,10.938,0,0,0,0,0
0.367,10.625,0,0,0,0,0
0.368,9.6875,0,0,0,0,0
0.369,8.125,0,0,0,0,0
0.37,5.625,0,0,0,0,0
0.371,3.125,0,0,0,0,0
0.372,0.625,0,0,0,0,0
0.373,-3.125,0,0,0,0,0
0.374,-6.5625,0,0,0,0,0
0.375,-9.375,0,0,0,0,0
0.376,-12.188,0,0,0,0,0
0.377,-14.375,0,0,0,0,0
0.378,-15.938,0,0,0,0,0
0.379,-15.625,0,0,0,0,0
0.38,-15.625,0,0,0,0,0
0.381,-14.375,0,0,0,0,0
0.382,-11.25,0,0,0,0,0
0.383,-8.75,0,0,0,0,0
0.384,-5.3125,0,0,0,0,0
0.385,-1.875,0,0,0,0,0
0.386,1.5625,0,0,0,0,0
0.387,4.375,0,0,0,0,0
0.388,6.875,0,0,0,0,0
0.389,8.75,0,0,0,0,0
0.39,10.938,0,0,0,0,0
0.391,13.125,0,0,0,0,0
0.392,14.375,0,0,0,0,0
0.393,15.625,0,0,0,0,0
0.394,17.5,0,0,0,0,0
0.395,19.375,0,0,0,0,0
0.396,21.25,0,0,0,0,0
0.397,22.5,0,0,0,0,0
0.398,24.688,0,0,0,0,0
0.399,26.25,0,0,0,0,0
0.4,26.875,0,0,0,0,0
0.401,26.25,0,0,0,0,0
0.402,27.813,0,0,0,0,0
0.403,28.75,0,0,0,0,0
0.404,29.063,0,0,0,0,0
0.405,29.375,0,0,0,0,0
0.406,29.375,0,0,0,0,0
0.407,28.75,0,0,0,0,0
0.408,29.063,0,0,0,0,0
0.409,29.375,0,0,0,0,0
0.41,30.313,0,0,0,0,0
0.411,30.625,0,0,0,0,0
0.412,31.25,0,0,0,0,0
0.413,31.25,0,0,0,0,0
0.414,31.875,0,0,0,0,0
0.415,31.875,0,0,0,0,0
0.416,32.813,0,0,0,0,0
0.417,32.5,0,0,0,0,0
0.418,33.438,0,0,0,0,0
0.419,34.375,0,0,0,0,0
0.42,34.688,0,0,0,0,0
0.421,35,0,0,0,0,0
0.422,35,0,1,0,0,0
0.423,35.625,0,0,0,0,0
0.424,35,0,0,0,0,0
0.425,34.375,0,0,0,0,0
0.426,33.75,0,0,0,0,0
0.427,33.75,0,0,0,0,0
0.428,33.75,0,0,0,0,0
0.429,33.75,0,0,0,0,0
0.43,34.375,0,0,0,0,0
0.431,34.375,0,0,0,0,0
0.432,34.063,0,0,0,0,0
0.433,33.75,0,0,0,0,0
0.434,33.438,0,0,0,0,0
0.435,33.75,0,0,0,0,0
0.436,33.438,0,0,0,0,0
0.437,33.125,0,0,0,0,0
0.438,31.563,0,0,0,0,0
0.439,30.625,0,0,0,0,0
0.44,29.688,0,0,0,0,0
0.441,28.75,0,0,0,0,0
0.442,28.125,0,0,0,0,0
0.443,26.875,0,0,0,0,0
0.444,25.938,0,0,0,0,0
0.445,25.625,0,0,0,0,0
0.446,25,0,0,0,0,0
0.447,25,0,0,0,0,0
0.448,24.375,0,0,0,0,0
0.449,23.75,0,0,0,0,0
0.45,22.188,0,0,0,0,0
0.451,21.25,0,0,0,0,0
0.452,20.313,0,0,0,0,0
0.453,19.375,0,0,0,0,0
0.454,18.75,0,0,0,0,0
0.455,18.125,0,0,0,0,0
0.456,17.813,0,0,0,0,0
0.457,17.5,0,0,0,0,0
0.458,16.563,0,0,0,0,0
0.459,15.625,0,0,0,0,0
0.46,15.938,0,0,0,0,0
0.461,15,0,0,0,0,0
0.462,14.063,0,0,0,0,0
0.463,13.125,0,0,0,0,0
0.464,12.5,0,0,0,0,0
0.465,11.25,0,0,0,0,0
0.466,10.313,0,0,0,0,0
0.467,9.375,0,0,0,0,0
0.468,7.8125,0,0,0,0,0
0.469,6.25,0,0,0,0,0
0.47,5.9375,0,0,0,0,0
0.471,5.625,0,0,0,0,0
0.472,5,0,0,0,0,0
0.473,3.75,0,0,0,0,0
0.474,3.125,0,0,0,0,0
0.475,2.5,0,0,0,0,0
0.476,1.875,0,0,0,0,0
0.477,1.25,0,0,0,0,0
0.478,0.625,0,0,0,0,0
0.479,-0.625,0,0,0,0,0
0.48,-0.3125,0,0,0,0,0
0.481,-0.625,0,0,0,0,0
0.482,-0.625,0,0,0,0,0
0.483,-0.625,0,0,0,0,0
0.484,-0.9375,0,0,0,0,0
0.485,-0.625,0,0,0,0,0
0.486,-0.625,0,0,0,0,0
0.487,-0.625,0,0,0,0,0
0.488,-0.625,0,0,0,0,0
0.489,-0.625,0,0,0,0,0
0.49,-0.625,0,0,0,0,0
0.491,-1.25,0,0,0,0,0
0.492,-0.3125,0,0,0,0,0
0.493,0,0,0,0,0,0
0.494,-0.9375,0,0,0,0,0
0.495,-1.25,0,0,0,0,0
0.496,-1.5625,0,0,1,0,0
0.497,-1.875,0,0,0,0,0
0.498,-1.5625,0,0,0,0,0
0.499,-1.875,0,0,0,0,0
0.5,-1.875,0,0,0,0,0
0.501,-1.875,0,0,0,0,0
0.502,-1.5625,0,0,0,0,0
0.503,-1.25,0,0,0,0,0
0.504,-1.25,0,0,0,0,0
0.505,-1.25,0,0,0,0,0
0.506,-0.9375,0,0,0,0,0
0.507,-1.25,0,0,0,0,0
0.508,-1.5625,0,0,0,0,0
0.509,-1.875,0,0,0,0,0
0.51,-1.5625,0,0,0,0,0
0.511,-1.875,0,0,0,0,0
0.512,-1.875,0,0,0,0,0
0.513,-1.875,0,0,0,0,0
0.514,-1.5625,0,0,0,0,0
0.515,-1.875,0,0,0,0,0
0.516,-1.5625,0,0,0,0,0
0.517,-1.875,0,0,0,0,0
0.518,-2.5,0,0,0,0,0
0.519,-2.5,0,0,0,0,0
0.52,-2.5,0,0,0,0,0
0.521,-2.5,0,0,0,0,0
0.522,-2.1875,0,0,0,0,0
0.523,-1.875,0,0,0,0,0
0.524,-3.125,0,0,0,0,0
0.525,-3.125,0,0,0,0,0
0.526,-2.5,0,0,0,0,0
0.527,-2.5,0,0,0,0,0
0.528,-2.8125,0,0,0,0,0
0.529,-3.125,0,0,0,0,0
0.53,-3.125,0,0,0,0,0
0.531,-3.125,0,0,0,0,0
0.532,-3.4375,0,0,0,0,0
0.533,-3.75,0,0,0,0,0
0.534,-3.4375,0,0,0,0,0
0.535,-3.125,0,0,0,0,0
0.536,-3.125,0,0,0,0,0
0.537,-3.125,0,0,0,0,0
0.538,-3.125,0,0,0,0,0
0.539,-3.125,0,0,0,0,0
0.54,-3.125,0,0,0,0,0
0.541,-3.125,0,0,0,0,0
0.542,-2.8125,0,0,0,0,0
0.543,-2.5,0,0,0,0,0
0.544,-2.5,0,0,0,0,0
0.545,-2.5,0,0,0,0,0
0.546,-2.5,0,0,0,0,0
0.547,-3.125,0,0,0,0,0
0.548,-3.4375,0,0,0,0,0
0.549,-3.75,0,0,0,0,0
0.55,-3.125,0,0,0,0,0
0.551,-3.75,0,0,0,0,0
0.552,-3.4375,0,0,0,0,0
0.553,-3.125,0,0,0,0,0
0.554,-2.8125,0,0,0,0,0
0.555,-3.125,0,0,0,0,0
0.556,-3.4375,0,0,0,0,0
0.557,-3.75,0,0,0,0,0
0.558,-4.0625,0,0,0,0,0
0.559,-4.375,0,0,0,0,0
0.56,-4.0625,0,0,0,0,0
0.561,-4.375,0,0,0,0,0
0.562,-4.6875,0,0,0,0,0
0.563,-5,0,0,0,0,0
0.564,-5,0,0,0,0,0
0.565,-5,0,0,0,0,0
0.566,-5.3125,0,0,0,0,0
0.567,-5.625,0,0,0,0,0
0.568,-5.3125,0,0,0,0,0
0.569,-5,0,0,0,0,0
0.57,-5,0,0,0,0,0
0.571,-5,0,0,0,0,0
0.572,-5.625,0,0,0,0,0
0.573,-5.625,0,0,0,0,0
0.574,-5.3125,0,0,0,0,0
0.575,-5,0,0,0,0,0
0.576,-4.6875,0,0,0,0,0
0.577,-4.375,0,0,0,0,0
0.578,-5.3125,0,0,0,0,0
0.579,-5.625,0,0,0,0,0
0.58,-5.625,0,0,0,0,0
0.581,-5.625,0,0,0,0,0
0.582,-5.3125,0,0,0,0,0
0.583,-5,0,0,0,0,0
0.584,-5.625,0,0,0,0,0
0.585,-5.625,0,0,0,0,0
0.586,-6.25,0,0,0,0,0
0.587,-5.625,0,0,0,0,0
0.588,-6.5625,0,0,0,0,0
0.589,-6.875,0,0,0,0,0
0.59,-6.5625,0,0,0,0,0
0.591,-6.875,0,0,0,0,0
0.592,-7.1875,0,0,0,0,0
0.593,-7.5,0,0,0,0,0
0.594,-7.5,0,0,0,0,0
0.595,-7.5,0,0,0,0,0
0.596,-7.5,0,0,0,0,0
0.597,-7.5,0,0,0,0,0
0.598,-8.125,0,0,0,0,0
0.599,-8.125,0,0,0,0,0
0.6,-8.125,0,0,0,0,0
0.601,-8.125,0,0,0,0,0
0.602,-9.0625,0,0,0,0,0
0.603,-9.375,0,0,0,0,0
0.604,-10,0,0,0,0,0
0.605,-10,0,0,0,0,0
0.606,-10,0,0,0,0,0
0.607,-10.625,0,0,0,0,0
0.608,-10.625,0,0,0,0,0
0.609,-10.625,0,0,0,0,0
0.61,-10.625,0,0,0,0,0
0.611,-10.625,0,0,0,0,0
0.612,-10.938,0,0,0,0,0
0.613,-10.625,0,0,0,0,0
0.614,-10.625,0,0,0,0,0
0.615,-11.25,0,0,0,0,0
0.616,-11.563,0,0,0,0,0
0.617,-11.875,0,0,0,0,0
0.618,-12.5,0,0,0,0,0
0.619,-12.5,0,0,0,0,0
0.62,-12.5,0,0,0,0,0
0.621,-12.5,0,0,0,0,0
0.622,-12.813,0,0,0,0,0
0.623,-12.5,0,0,0,0,0
0.624,-12.5,0,0,0,0,0
0.625,-12.5,0,0,0,0,0
0.626,-12.813,0,0,0,0,0
0.627,-13.125,0,0,0,0,0
0.628,-13.125,0,0,0,0,0
0.629,-13.125,0,0,0,0,0
0.63,-13.75,0,0,0,0,0
0.631,-13.75,0,0,0,0,0
0.632,-13.75,0,0,0,0,0
0.633,-13.75,0,0,0,0,0
0.634,-14.063,0,0,0,0,0
0.635,-14.375,0,0,0,0,0
0.636,-14.375,0,0,0,0,0
0.637,-14.375,0,0,0,0,0
0.638,-14.688,0,0,0,0,0
0.639,-14.375,0,0,0,0,0
0.64,-14.375,0,0,0,0,0
0.641,-14.375,0,0,0,0,0
0.642,-14.375,0,0,0,0,0
0.643,-14.375,0,0,0,0,0
0.644,-15,0,0,0,1,0
0.645,-15,0,0,0,0,0
0.646,-15,0,0,0,0,0
0.647,-15,0,0,0,0,0
0.648,-14.375,0,0,0,0,0
0.649,-14.375,0,0,0,0,0
0.65,-14.375,0,0,0,0,0
0.651,-14.375,0,0,0,0,0
0.652,-13.75,0,0,0,0,0
0.653,-13.75,0,0,0,0,0
0.654,-14.375,0,0,0,0,0
0.655,-15,0,0,0,0,0
0.656,-14.375,0,0,0,0,0
0.657,-14.375,0,0,0,0,0
0.658,-14.688,0,0,0,0,0
0.659,-15,0,0,0,0,0
0.66,-14.688,0,0,0,0,0
0.661,-13.75,0,0,0,0,0
0.662,-13.75,0,0,0,0,0
0.663,-13.75,0,0,0,0,0
0.664,-13.438,0,0,0,0,0
0.665,-13.125,0,0,0,0,0
0.666,-12.813,0,0,0,0,0
0.667,-12.5,0,0,0,0,0
0.668,-12.813,0,0,0,0,0
0.669,-12.5,0,0,0,0,0
0.67,-12.188,0,0,0,0,0
0.671,-11.875,0,0,0,0,0
0.672,-11.875,0,0,0,0,0
0.673,-11.25,0,0,0,0,0
0.674,-10.625,0,0,0,0,0
0.675,-10.625,0,0,0,0,0
0.676,-9.6875,0,0,0,0,0
0.677,-9.375,0,0,0,0,0
0.678,-9.6875,0,0,0,0,0
0.679,-9.375,0,0,0,0,0
0.68,-9.0625,0,0,0,0,0
0.681,-9.375,0,0,0,0,0
0.682,-8.75,0,0,0,0,0
0.683,-8.125,0,0,0,0,0
0.684,-8.125,0,0,0,0,0
0.685,-7.5,0,0,0,0,0
0.686,-7.1875,0,0,0,0,0
0.687,-6.25,0,0,0,0,0
0.688,-5.9375,0,0,0,0,0
0.689,-6.25,0,0,0,0,0
0.69,-6.5625,0,0,0,0,0
0.691,-6.25,0,0,0,0,0
0.692,-6.25,0,0,0,0,0
0.693,-5.625,0,0,0,0,0
0.694,-5.625,0,0,0,0,0
0.695,-5,0,0,0,0,0
0.696,-4.0625,0,0,0,0,0
0.697,-3.75,0,0,0,0,0
0.698,-3.75,0,0,0,0,0
0.699,-3.125,0,0,0,0,0
0.7,-3.125,0,0,0,0,0
0.701,-2.5,0,0,0,0,0
0.702,-2.5,0,0,0,0,0
0.703,-1.875,0,0,0,0,0
0.704,-1.5625,0,0,0,0,0
0.705,-0.625,0,0,0,0,0
0.706,-0.9375,0,0,0,0,0
0.707,-0.625,0,0,0,0,0
0.708,-0.9375,0,0,0,0,0
0.709,-0.625,0,0,0,0,0
0.71,-0.625,0,0,0,0,0
0.711,-0.625,0,0,0,0,0
0.712,0.3125,0,0,0,0,0
0.713,0.625,0,0,0,0,0
0.714,0.625,0,0,0,0,0
0.715,0,0,0,0,0,0
0.716,0.9375,0,0,0,0,0
0.717,1.25,0,0,0,0,0
0.718,1.25,0,0,0,0,0
0.719,1.25,0,0,0,0,0
0.72,1.25,0,0,0,0,0
0.721,1.25,0,0,0,0,0
0.722,1.25,0,0,0,0,0
0.723,1.875,0,0,0,0,0
0.724,1.875,0,0,0,0,0
0.725,1.875,0,0,0,0,0
0.726,1.875,0,0,0,0,0
0.727,1.875,0,0,0,0,0
0.728,1.875,0,0,0,0,0
0.729,2.5,0,0,0,0,0
0.73,2.1875,0,0,0,0,0
0.731,2.5,0,0,0,0,0
0.732,3.4375,0,0,0,0,0
0.733,3.75,0,0,0,0,0
0.734,3.4375,0,0,0,0,0
0.735,3.125,0,0,0,0,0
0.736,2.8125,0,0,0,0,0
0.737,2.5,0,0,0,0,0
0.738,2.5,0,0,0,0,0
0.739,2.5,0,0,0,0,1
0.74,2.5,0,0,0,0,0
0.741,2.5,0,0,0,0,0
0.742,2.8125,0,0,0,0,0
0.743,3.125,0,0,0,0,0
0.744,2.1875,0,0,0,0,0
0.745,1.875,0,0,0,0,0
0.746,2.8125,0,0,0,0,0
0.747,2.5,0,0,0,0,0
0.748,2.5,0,0,0,0,0
0.749,3.125,0,0,0,0,0
0.75,3.4375,0,0,0,0,0
0.751,3.125,0,0,0,0,0
0.752,3.4375,0,0,0,0,0
0.753,3.75,0,0,0,0,0
0.754,3.4375,0,0,0,0,0
0.755,3.125,0,0,0,0,0
0.756,3.125,0,0,0,0,0
0.757,3.125,0,0,0,0,0
0.758,2.5,0,0,0,0,0
0.759,3.125,0,0,0,0,0
0.76,3.4375,0,0,0,0,0
0.761,3.125,0,0,0,0,0
0.762,2.8125,0,0,0,0,0
0.763,3.125,0,0,0,0,0
0.764,3.125,0,0,0,0,0
0.765,3.125,0,0,0,0,0
0.766,2.5,0,0,0,0,0
0.767,2.5,0,0,0,0,0
0.768,2.5,0,0,0,0,0
0.769,2.5,0,0,0,0,0
0.77,2.8125,0,0,0,0,0
0.771,3.125,0,0,0,0,0
0.772,3.125,0,0,0,0,0
0.773,3.125,0,0,0,0,0
0.774,3.125,0,0,0,0,0
0.775,3.125,0,0,0,0,0
0.776,3.125,0,0,0,0,0
0.777,3.125,0,0,0,0,0
0.778,3.125,0,0,0,0,0
0.779,3.125,0,0,0,0,0
0.78,2.8125,0,0,0,0,0
0.781,2.5,0,0,0,0,0
0.782,2.5,0,0,0,0,0
0.783,2.5,0,0,0,0,0
0.784,1.5625,0,0,0,0,0
0.785,1.25,0,0,0,0,0
0.786,1.25,0,0,0,0,0
0.787,1.25,0,0,0,0,0
0.788,0.9375,0,0,0,0,0
0.789,1.25,0,0,0,0,0
0.79,0.625,0,0,0,0,0
0.791,1.25,0,0,0,0,0
0.792,1.5625,0,0,0,0,0
0.793,1.875,0,0,0,0,0
0.794,1.875,0,0,0,0,0
0.795,1.25,0,0,0,0,0
0.796,1.5625,0,0,0,0,0
0.797,1.25,0,0,0,0,0
0.798,1.25,0,0,0,0,0
0.799,1.25,0,0,0,0,0
0.8,1.25,0,0,0,0,0
0.801,1.25,0,0,0,0,0
0.802,1.25,0,0,0,0,0
0.803,1.25,0,0,0,0,0
0.804,0.625,0,0,0,0,0
0.805,1.25,0,0,0,0,0
0.806,0.9375,0,0,0,0,0
0.807,1.25,0,0,0,0,0
0.808,0.9375,0,0,0,0,0
0.809,1.25,0,0,0,0,0
0.81,0.9375,0,0,0,0,0
0.811,0.625,0,0,0,0,0
0.812,0.625,0,0,0,0,0
0.813,0.625,0,0,0,0,0
0.814,0.3125,0,0,0,0,0
0.815,0,0,0,0,0,0
0.816,0,0,0,0,0,0
0.817,0,0,0,0,0,0
0.818,-0.3125,0,0,0,0,0
0.819,0,0,0,0,0,0
0.82,0,0,0,0,0,0
0.821,0,0,0,0,0,0
0.822,0,0,0,0,0,0
0.823,0,0,0,0,0,0
0.824,0,0,0,0,0,0
0.825,0,0,0,0,0,0
0.826,0,0,0,0,0,0
0.827,0.625,0,0,0,0,0
0.828,0,0,0,0,0,0
0.829,0,0,0,0,0,0
0.83,0.3125,0,0,0,0,0
0.831,0.625,0,0,0,0,0
0.832,0.9375,0,0,0,0,0
0.833,0.625,0,0,0,0,0
0.834,1.25,0,0,0,0,0
0.835,1.25,0,0,0,0,0
0.836,0.625,0,0,0,0,0
0.837,0.625,0,0,0,0,0
0.838,0.3125,0,0,0,0,0
0.839,0.625,0,0,0,0,0
0.84,-0.3125,0,0,0,0,0
0.841,-0.625,0,0,0,0,0
0.842,0,0,0,0,0,0
0.843,0,0,0,0,0,0
0.844,0,0,0,0,0,0
0.845,0,0,0,0,0,0
0.846,0,0,0,0,0,0
0.847,0,0,0,0,0,0
0.848,0.3125,0,0,0,0,0
0.849,0,0,0,0,0,0
0.85,0,0,0,0,0,0
0.851,0.625,0,0,0,0,0
0.852,0,0,0,0,0,0
0.853,0,0,0,0,0,0
0.854,-0.3125,0,0,0,0,0
0.855,-0.625,0,0,0,0,0
0.856,0.3125,0,0,0,0,0
0.857,0,0,0,0,0,0
0.858,0,0,0,0,0,0
0.859,0,0,0,0,0,0
0.86,0.3125,0,0,0,0,0
0.861,0.625,0,0,0,0,0
0.862,0.3125,0,0,0,0,0
0.863,0,0,0,0,0,0
0.864,0,0,0,0,0,0
0.865,0,0,0,0,0,0
0.866,0,0,0,0,0,0
0.867,0,0,0,0,0,0
0.868,0.3125,0,0,0,0,0
0.869,0.625,0,0,0,0,0
0.87,0.3125,0,0,0,0,0
0.871,0.625,0,0,0,0,0
0.872,0.3125,0,0,0,0,0
0.873,0,0,0,0,0,0
0.874,0.625,0,0,0,0,0
0.875,0.625,0,0,0,0,0
0.876,0,0,0,0,0,0
0.877,0,0,0,0,0,0
0.878,0.625,0,0,0,0,0
0.879,0,0,0,0,0,0
0.88,0.3125,0,0,0,0,0
0.881,0,0,0,0,0,0
0.882,-0.3125,0,0,0,0,0
0.883,0,0,0,0,0,0
0.884,0,0,0,0,0,0
0.885,0,0,0,0,0,0
0.886,-0.625,0,0,0,0,0
0.887,-1.25,0,0,0,0,0
0.888,-1.5625,0,0,0,0,0
0.889,-1.875,0,0,0,0,0
0.89,-1.875,0,0,0,0,0
0.891,-1.875,0,0,0,0,0
0.892,-1.875,0,0,0,0,0
0.893,-1.875,0,0,0,0,0
0.894,-2.1875,0,0,0,0,0
0.895,-1.875,0,0,0,0,0
0.896,-1.875,0,0,0,0,0
0.897,-2.5,0,0,0,0,0
0.898,-1.875,0,0,0,0,0
0.899,-1.25,0,0,0,0,0
0.9,-1.25,0,0,0,0,0
0.901,-1.25,0,0,0,0,0
0.902,-1.25,0,0,0,0,0
0.903,-1.25,0,0,0,0,0
0.904,-1.25,0,0,0,0,0
0.905,-1.25,0,0,0,0,0
0.906,-1.5625,0,0,0,0,0
0.907,-1.25,0,0,0,0,0
0.908,-0.9375,0,0,0,0,0
0.909,-1.25,0,0,0,0,0
0.91,-1.25,0,0,0,0,0
0.911,-1.25,0,0,0,0,0
0.912,-1.25,0,0,0,0,0
0.913,-1.25,0,0,0,0,0
0.914,-1.5625,0,0,0,0,0
0.915,-1.875,0,0,0,0,0
0.916,-1.875,0,0,0,0,0
0.917,-1.875,0,0,0,0,0
0.918,-1.875,0,0,0,0,0
0.919,-2.5,0,0,0,0,0
0.92,-1.5625,0,0,0,0,0
0.921,-1.25,0,0,0,0,0
0.922,-1.25,0,0,0,0,0
0.923,-1.25,0,0,0,0,0
0.924,-0.9375,0,0,0,0,0
0.925,-0.625,0,0,0,0,0
0.926,-0.3125,0,0,0,0,0
0.927,-0.625,0,0,0,0,0
0.928,-0.9375,0,0,0,0,0
0.929,-0.625,0,0,0,0,0
0.93,-0.9375,0,0,0,0,0
0.931,-1.25,0,0,0,0,0
0.932,-1.25,0,0,0,0,0
0.933,-1.25,0,0,0,0,0
0.934,-1.25,0,0,0,0,0
0.935,-0.625,0,0,0,0,0
0.936,-0.625,0,0,0,0,0
0.937,-0.625,0,0,0,0,0
0.938,-0.9375,0,0,0,0,0
0.939,-0.625,0,0,0,0,0
0.94,-0.3125,0,0,0,0,0
0.941,0,0,0,0,0,0
0.942,0,0,0,0,0,0
0.943,0.625,0,0,0,0,0
0.944,0.625,0,0,0,0,0
0.945,1.25,0,0,0,0,0
0.946,1.25,0,0,0,0,0
0.947,1.25,0,0,0,0,0
0.948,0.9375,0,0,0,0,0
0.949,1.25,0,0,0,0,0
0.95,1.25,0,0,0,0,0
0.951,1.25,0,0,0,0,0
0.952,1.25,0,0,0,0,0
0.953,1.875,0,0,0,0,0
0.954,1.875,0,0,0,0,0
0.955,1.875,0,0,0,0,0
0.956,1.875,0,0,0,0,0
0.957,1.875,0,0,0,0,0
0.958,2.1875,0,0,0,0,0
0.959,2.5,0,0,0,0,0
0.96,2.5,0,0,0,0,0
0.961,2.5,0,0,0,0,0
0.962,2.1875,0,0,0,0,0
0.963,2.5,0,0,0,0,0
0.964,2.5,0,0,0,0,0
0.965,1.875,0,0,0,0,0
0.966,2.1875,0,0,0,0,0
0.967,1.875,0,0,0,0,0
0.968,1.25,0,0,0,0,0
0.969,1.875,0,0,0,0,0
0.97,1.25,0,0,0,0,0
0.971,1.25,0,0,0,0,0
0.972,1.875,0,0,0,0,0
0.973,1.875,0,0,0,0,0
0.974,1.875,0,0,0,0,0
0.975,1.875,0,0,0,0,0
0.976,1.875,0,0,0,0,0
0.977,1.875,0,0,0,0,0
0.978,2.1875,0,0,0,0,0
0.979,2.5,0,0,0,0,0
0.98,2.8125,0,0,0,0,0
0.981,2.5,0,0,0,0,0
0.982,2.1875,0,0,0,0,0
0.983,2.5,0,0,0,0,0
0.984,2.8125,0,0,0,0,0
0.985,2.5,0,0,0,0,0
0.986,2.5,0,0,0,0,0
0.987,1.875,0,0,0,0,0
0.988,2.1875,0,0,0,0,0
0.989,1.875,0,0,0,0,0
0.99,1.875,0,0,0,0,0
0.991,1.875,0,0,0,0,0
0.992,1.5625,0,0,0,0,0
0.993,1.25,0,0,0,0,0
0.994,0.3125,0,0,0,0,0
0.995,0,0,0,0,0,0
0.996,-0.625,0,0,0,0,0
0.997,-0.625,0,0,0,0,0
0.998,-1.5625,0,0,0,0,0
0.999,-1.875,0,0,0,0,0
1,-1.5625,0,0,0,0,0
1.001,-1.875,0,0,0,0,0
1.002,-1.875,0,0,0,0,0
1.003,-1.875,0,0,0,0,0
1.004,-1.875,0,0,0,0,0
1.005,-1.875,0,0,0,0,0
1.006,-1.875,0,0,0,0,0
1.007,-1.875,0,0,0,0,0
1.008,-2.1875,0,0,0,0,0
1.009,-1.875,0,0,0,0,0
1.01,-2.1875,0,0,0,0,0
1.011,-2.5,0,0,0,0,0
1.012,-2.5,0,0,0,0,0
1.013,-2.5,0,0,0,0,0
1.014,-2.8125,0,0,0,0,0
1.015,-3.125,0,0,0,0,0
1.016,-3.125,0,0,0,0,0
1.017,-3.75,0,0,0,0,0
1.018,-3.125,0,0,0,0,0
1.019,-3.125,0,0,0,0,0
1.02,-2.8125,0,0,0,0,0
1.021,-2.5,0,0,0,0,0
1.022,-3.4375,0,0,0,0,0
1.023,-3.75,0,0,0,0,0
1.024,-2.8125,0,0,0,0,0
1.025,-2.5,0,0,0,0,0
1.026,-2.1875,0,0,0,0,0
1.027,-1.875,0,0,0,0,0
1.028,-1.875,0,0,0,0,0
1.029,-1.25,0,0,0,0,0
1.03,-1.5625,0,0,0,0,0
1.031,-2.5,0,0,0,0,0
1.032,-2.8125,0,0,0,0,0
1.033,-3.125,0,0,0,0,0
1.034,-3.4375,0,0,0,0,0
1.035,-3.125,0,0,0,0,0
1.036,-3.4375,0,0,0,0,0
1.037,-3.75,0,0,0,0,0
1.038,-3.4375,0,0,0,0,0
1.039,-3.75,0,0,0,0,0
1.04,-3.75,0,0,0,0,0
1.041,-3.75,0,0,0,0,0
1.042,-3.4375,0,0,0,0,0
1.043,-3.125,0,0,0,0,0
1.044,-3.125,0,0,0,0,0
1.045,-3.125,0,0,0,0,0
1.046,-3.125,0,0,0,0,0
1.047,-3.75,0,0,0,0,0
1.048,-3.4375,0,0,0,0,0
1.049,-3.125,0,0,0,0,0
1.05,-2.8125,0,0,0,0,0
1.051,-2.5,0,0,0,0,0
1.052,-2.5,0,0,0,0,0
1.053,-2.5,0,0,0,0,0
1.054,-2.8125,0,0,0,0,0
1.055,-2.5,0,0,0,0,0
1.056,-2.1875,0,0,0,0,0
1.057,-1.875,0,0,0,0,0
1.058,-2.5,0,0,0,0,0
1.059,-2.5,0,0,0,0,0
1.06,-1.5625,0,0,0,0,0
1.061,-1.875,0,0,0,0,0
1.062,-2.1875,0,0,0,0,0
1.063,-2.5,0,0,0,0,0
1.064,-2.8125,0,0,0,0,0
1.065,-2.5,0,0,0,0,0
1.066,-2.5,0,0,0,0,0
1.067,-2.5,0,0,0,0,0
1.068,-2.1875,0,0,0,0,0
1.069,-2.5,0,0,0,0,0
1.07,-2.1875,0,0,0,0,0
1.071,-1.875,0,0,0,0,0
1.072,-2.1875,0,0,0,0,0
1.073,-1.875,0,0,0,0,0
1.074,-1.875,0,0,0,0,0
1.075,-1.875,0,0,0,0,0
1.076,-2.1875,0,0,0,0,0
1.077,-2.5,0,0,0,0,0
1.078,-2.8125,0,0,0,0,0
1.079,-3.125,0,0,0,0,0
1.08,-2.8125,0,0,0,0,0
1.081,-2.5,0,0,0,0,0
1.082,-1.875,0,0,0,0,0
1.083,-1.25,1,0,0,0,0
1.084,-0.9375,0,0,0,0,0
1.085,-0.625,0,0,0,0,0
1.086,-1.5625,0,0,0,0,0
1.087,-1.875,0,0,0,0,0
1.088,-1.5625,0,0,0,0,0
1.089,-1.25,0,0,0,0,0
1.09,-1.875,0,0,0,0,0
1.091,-1.875,0,0,0,0,0
1.092,-1.25,0,0,0,0,0
1.093,-1.25,0,0,0,0,0
1.094,-1.5625,0,0,0,0,0
1.095,-1.875,0,0,0,0,0
1.096,-1.5625,0,0,0,0,0
1.097,-1.25,0,0,0,0,0
1.098,-1.25,0,0,0,0,0
1.099,-1.25,0,0,0,0,0
1.1,-1.25,0,0,0,0,0
1.101,-1.25,0,0,0,0,0
1.102,-1.25,0,0,0,0,0
1.103,-1.25,0,0,0,0,0
1.104,-1.25,0,0,0,0,0
1.105,-1.25,0,0,0,0,0
1.106,-1.5625,0,0,0,0,0
1.107,-1.25,0,0,0,0,0
1.108,-0.9375,0,0,0,0,0
1.109,-0.625,0,0,0,0,0
1.11,-0.9375,0,0,0,0,0
1.111,-1.25,0,0,0,0,0
1.112,-1.25,0,0,0,0,0
1.113,-0.625,0,0,0,0,0
1.114,-0.3125,0,0,0,0,0
1.115,-0.625,0,0,0,0,0
1.116,0.3125,0,0,0,0,0
1.117,1.25,0,0,0,0,0
1.118,2.1875,0,0,0,0,0
1.119,2.5,0,0,0,0,0
1.12,3.125,0,0,0,0,0
1.121,3.125,0,0,0,0,0
1.122,3.125,0,0,0,0,0
1.123,4.375,0,0,0,0,0
1.124,5,0,0,0,0,0
1.125,5.625,0,0,0,0,0
1.126,5.9375,0,0,0,0,0
1.127,5.625,0,0,0,0,0
1.128,6.5625,0,0,0,0,0
1.129,7.5,0,0,0,0,0
1.13,8.75,0,0,0,0,0
1.131,9.375,0,0,0,0,0
1.132,10,0,0,0,0,0
1.133,10,0,0,0,0,0
1.134,11.25,0,0,0,0,0
1.135,11.875,0,0,0,0,0
1.136,13.438,0,0,0,0,0
1.137,14.375,0,0,0,0,0
1.138,15,0,0,0,0,0
1.139,16.25,0,0,0,0,0
1.14,17.5,0,0,0,0,0
1.141,18.75,0,0,0,0,0
1.142,19.063,0,0,0,0,0
1.143,20,0,0,0,0,0
1.144,19.688,0,0,0,0,0
1.145,18.75,0,0,0,0,0
1.146,18.125,0,0,0,0,0
1.147,17.5,0,0,0,0,0
1.148,16.25,0,0,0,0,0
1.149,15,0,0,0,0,0
1.15,14.063,0,0,0,0,0
1.151,13.75,0,0,0,0,0
1.152,13.75,0,0,0,0,0
1.153,12.5,0,0,0,0,0
1.154,11.563,0,0,0,0,0
1.155,11.25,0,0,0,0,0
1.156,9.6875,0,0,0,0,0
1.157,7.5,0,0,0,0,0
1.158,5.625,0,0,0,0,0
1.159,3.125,0,0,0,0,0
1.16,0.3125,0,0,0,0,0
1.161,-2.5,0,0,0,0,0
1.162,-6.25,0,0,0,0,0
1.163,-10,0,0,0,0,0
1.164,-12.813,0,0,0,0,0
1.165,-15,0,0,0,0,0
1.166,-15.938,0,0,0,0,0
1.167,-16.25,0,0,0,0,0
1.168,-15,0,0,0,0,0
1.169,-13.75,0,0,0,0,0
1.17,-12.5,0,0,0,0,0
1.171,-10,0,0,0,0,0
1.172,-7.5,0,0,0,0,0
1.173,-4.375,0,0,0,0,0
1.174,-1.25,0,0,0,0,0
1.175,2.5,0,0,0,0,0
1.176,5.3125,0,0,0,0,0
1.177,7.5,0,0,0,0,0
1.178,9.375,0,0,0,0,0
1.179,11.25,0,0,0,0,0
1.18,12.813,0,0,0,0,0
1.181,13.75,0,0,0,0,0
1.182,15.313,0,0,0,0,0
1.183,17.5,0,0,0,0,0
1.184,18.75,0,0,0,0,0
1.185,20,0,0,0,0,0
1.186,21.563,0,0,0,0,0
1.187,23.75,0,0,0,0,0
1.188,25,0,0,0,0,0
1.189,26.25,0,0,0,0,0
1.19,26.25,0,0,0,0,0
1.191,27.5,0,0,0,0,0
1.192,28.125,0,0,0,0,0
1.193,28.125,0,0,0,0,0
1.194,27.813,0,0,0,0,0
1.195,28.125,0,0,0,0,0
1.196,28.438,0,0,0,0,0
1.197,29.375,0,0,0,0,0
1.198,29.688,0,0,0,0,0
1.199,30,0,0,0,0,0
1.2,29.688,0,0,0,0,0
1.201,30,0,0,0,0,0
1.202,30.625,0,0,0,0,0
1.203,31.875,0,0,0,0,0
1.204,31.563,0,0,0,0,0
1.205,32.5,0,0,0,0,0
1.206,32.5,0,0,0,0,0
1.207,33.125,0,0,0,0,0
1.208,33.438,0,0,0,0,0
1.209,33.125,0,0,0,0,0
1.21,33.438,0,0,0,0,0
1.211,33.125,0,0,0,0,0
1.212,33.75,0,0,0,0,0
1.213,33.75,0,0,0,0,0
1.214,33.438,0,0,0,0,0
1.215,33.125,0,0,0,0,0
1.216,32.813,0,0,0,0,0
1.217,32.5,0,0,0,0,0
1.218,32.188,0,0,0,0,0
1.219,32.5,0,0,0,0,0
1.22,32.813,0,1,0,0,0
1.221,32.5,0,0,0,0,0
1.222,31.875,0,0,0,0,0
1.223,31.25,0,0,0,0,0
1.224,31.25,0,0,0,0,0
1.225,30.625,0,0,0,0,0
1.226,30,0,0,0,0,0
1.227,28.75,0,0,0,0,0
1.228,28.75,0,0,0,0,0
1.229,28.75,0,0,0,0,0
1.23,27.813,0,0,0,0,0
1.231,26.875,0,0,0,0,0
1.232,25.625,0,0,0,0,0
1.233,24.375,0,0,0,0,0
1.234,23.75,0,0,0,0,0
1.235,23.125,0,0,0,0,0
1.236,23.125,0,0,0,0,0
1.237,21.875,0,0,0,0,0
1.238,20.625,0,0,0,0,0
1.239,19.375,0,0,0,0,0
1.24,18.438,0,0,0,0,0
1.241,17.5,0,0,0,0,0
1.242,17.188,0,0,0,0,0
1.243,16.875,0,0,0,0,0
1.244,15.938,0,0,0,0,0
1.245,15,0,0,0,0,0
1.246,14.688,0,0,0,0,0
1.247,14.375,0,0,0,0,0
1.248,13.75,0,0,0,0,0
1.249,13.75,0,0,0,0,0
1.25,12.5,0,0,0,0,0
1.251,11.875,0,0,0,0,0
1.252,11.25,0,0,0,0,0
1.253,10.625,0,0,0,0,0
1.254,9.6875,0,0,0,0,0
1.255,8.75,0,0,0,0,0
1.256,7.1875,0,0,0,0,0
1.257,5.625,0,0,0,0,0
1.258,4.375,0,0,0,0,0
1.259,3.75,0,0,0,0,0
1.26,3.125,0,0,0,0,0
1.261,2.5,0,0,0,0,0
1.262,1.25,0,0,0,0,0
1.263,0.625,0,0,0,0,0
1.264,0,0,0,0,0,0
1.265,-0.625,0,0,0,0,0
1.266,-0.9375,0,0,0,0,0
1.267,-0.625,0,0,0,0,0
1.268,-1.25,0,0,0,0,0
1.269,-1.25,0,0,0,0,0
1.27,-2.1875,0,0,0,0,0
1.271,-2.5,0,0,0,0,0
1.272,-2.8125,0,0,0,0,0
1.273,-3.125,0,0,0,0,0
1.274,-2.5,0,0,0,0,0
1.275,-2.5,0,0,0,0,0
1.276,-2.5,0,0,0,0,0
1.277,-2.5,0,0,0,0,0
1.278,-2.1875,0,0,0,0,0
1.279,-1.875,0,0,0,0,0
1.28,-2.8125,0,0,0,0,0
1.281,-2.5,0,0,0,0,0
1.282,-1.875,0,0,0,0,0
1.283,-1.875,0,0,0,0,0
1.284,-2.1875,0,0,0,0,0
1.285,-2.5,0,0,0,0,0
1.286,-2.5,0,0,0,0,0
1.287,-2.5,0,0,0,0,0
1.288,-3.125,0,0,0,0,0
1.289,-3.125,0,0,1,0,0
1.29,-3.125,0,0,0,0,0
1.291,-3.125,0,0,0,0,0
1.292,-3.4375,0,0,0,0,0
1.293,-3.75,0,0,0,0,0
1.294,-3.4375,0,0,0,0,0
1.295,-3.125,0,0,0,0,0
1.296,-3.75,0,0,0,0,0
1.297,-3.75,0,0,0,0,0
1.298,-4.375,0,0,0,0,0
1.299,-4.375,0,0,0,0,0
1.3,-4.375,0,0,0,0,0
1.301,-4.375,0,0,0,0,0
1.302,-4.375,0,0,0,0,0
1.303,-4.375,0,0,0,0,0
1.304,-5,0,0,0,0,0
1.305,-4.375,0,0,0,0,0
1.306,-4.0625,0,0,0,0,0
1.307,-4.375,0,0,0,0,0
1.308,-4.0625,0,0,0,0,0
1.309,-3.75,0,0,0,0,0
1.31,-3.75,0,0,0,0,0
1.311,-3.75,0,0,0,0,0
1.312,-3.75,0,0,0,0,0
1.313,-4.375,0,0,0,0,0
1.314,-3.75,0,0,0,0,0
1.315,-3.75,0,0,0,0,0
1.316,-4.0625,0,0,0,0,0
1.317,-3.75,0,0,0,0,0
1.318,-3.75,0,0,0,0,0
1.319,-3.75,0,0,0,0,0
1.32,-3.4375,0,0,0,0,0
1.321,-3.125,0,0,0,0,0
1.322,-3.4375,0,0,0,0,0
1.323,-3.75,0,0,0,0,0
1.324,-3.75,0,0,0,0,0
1.325,-3.75,0,0,0,0,0
1.326,-4.0625,0,0,0,0,0
1.327,-4.375,0,0,0,0,0
1.328,-4.6875,0,0,0,0,0
1.329,-5,0,0,0,0,0
1.33,-5,0,0,0,0,0
1.331,-5,0,0,0,0,0
1.332,-5,0,0,0,0,0
1.333,-5,0,0,0,0,0
1.334,-4.6875,0,0,0,0,0
1.335,-4.375,0,0,0,0,0
1.336,-5,0,0,0,0,0
1.337,-5,0,0,0,0,0
1.338,-5.3125,0,0,0,0,0
1.339,-5,0,0,0,0,0
1.34,-5.3125,0,0,0,0,0
1.341,-5,0,0,0,0,0
1.342,-5.3125,0,0,0,0,0
1.343,-5.625,0,0,0,0,0
1.344,-5.9375,0,0,0,0,0
1.345,-5.625,0,0,0,0,0
1.346,-5.625,0,0,0,0,0
1.347,-5.625,0,0,0,0,0
1.348,-5.625,0,0,0,0,0
1.349,-5.625,0,0,0,0,0
1.35,-6.25,0,0,0,0,0
1.351,-6.25,0,0,0,0,0
1.352,-6.5625,0,0,0,0,0
1.353,-6.875,0,0,0,0,0
1.354,-6.875,0,0,0,0,0
1.355,-6.875,0,0,0,0,0
1.356,-6.5625,0,0,0,0,0
1.357,-6.25,0,0,0,0,0
1.358,-6.5625,0,0,0,0,0
1.359,-6.875,0,0,0,0,0
1.36,-6.875,0,0,0,0,0
1.361,-7.5,0,0,0,0,0
1.362,-7.1875,0,0,0,0,0
1.363,-6.875,0,0,0,0,0
1.364,-6.875,0,0,0,0,0
1.365,-6.875,0,0,0,0,0
1.366,-7.1875,0,0,0,0,0
1.367,-8.125,0,0,0,0,0
1.368,-8.125,0,0,0,0,0
1.369,-8.125,0,0,0,0,0
1.37,-8.4375,0,0,0,0,0
1.371,-8.75,0,0,0,0,0
1.372,-8.125,0,0,0,0,0
1.373,-8.125,0,0,0,0,0
1.374,-8.125,0,0,0,0,0
1.375,-8.75,0,0,0,0,0
1.376,-8.4375,0,0,0,0,0
1.377,-9.375,0,0,0,0,0
1.378,-9.6875,0,0,0,0,0
1.379,-10,0,0,0,0,0
1.38,-10.625,0,0,0,0,0
1.381,-10.625,0,0,0,0,0
1.382,-10.625,0,0,0,0,0
1.383,-10.625,0,0,0,0,0
1.384,-10.313,0,0,0,0,0
1.385,-10,0,0,0,0,0
1.386,-10,0,0,0,0,0
1.387,-10.625,0,0,0,0,0
1.388,-10.625,0,0,0,0,0
1.389,-10.625,0,0,0,0,0
1.39,-10.313,0,0,0,0,0
1.391,-10.625,0,0,0,0,0
1.392,-10.625,0,0,0,0,0
1.393,-11.25,0,0,0,0,0
1.394,-11.563,0,0,0,0,0
1.395,-11.875,0,0,0,0,0
1.396,-12.5,0,0,0,0,0
1.397,-12.5,0,0,0,0,0
1.398,-12.5,0,0,0,0,0
1.399,-12.5,0,0,0,0,0
1.4,-12.5,0,0,0,0,0
1.401,-13.125,0,0,0,0,0
1.402,-13.438,0,0,0,0,0
1.403,-13.75,0,0,0,0,0
1.404,-14.375,0,0,0,0,0
1.405,-14.375,0,0,0,0,0
1.406,-13.75,0,0,0,0,0
1.407,-13.75,0,0,0,0,0
1.408,-14.063,0,0,0,0,0
1.409,-14.375,0,0,0,0,0
1.41,-14.375,0,0,0,0,0
1.411,-15,0,0,0,0,0
1.412,-15.313,0,0,0,0,0
1.413,-15.625,0,0,0,0,0
1.414,-15.313,0,0,0,0,0
1.415,-15,0,0,0,0,0
1.416,-15.313,0,0,0,0,0
1.417,-15.625,0,0,0,0,0
1.418,-15.625,0,0,0,0,0
1.419,-16.25,0,0,0,0,0
1.42,-16.25,0,0,0,0,0
1.421,-16.25,0,0,0,0,0
1.422,-16.25,0,0,0,0,0
1.423,-16.25,0,0,0,0,0
1.424,-16.25,0,0,0,0,0
1.425,-16.25,0,0,0,0,0
1.426,-16.25,0,0,0,0,0
1.427,-16.875,0,0,0,0,0
1.428,-16.875,0,0,0,0,0
1.429,-16.875,0,0,0,0,0
1.43,-16.875,0,0,0,0,0
1.431,-16.875,0,0,0,0,0
1.432,-16.875,0,0,0,0,0
1.433,-16.875,0,0,0,0,0
1.434,-16.563,0,0,0,0,0
1.435,-16.875,0,0,0,0,0
1.436,-17.188,0,0,0,0,0
1.437,-17.5,0,0,0,1,0
1.438,-17.813,0,0,0,0,0
1.439,-17.5,0,0,0,0,0
1.44,-17.5,0,0,0,0,0
1.441,-16.875,0,0,0,0,0
1.442,-16.875,0,0,0,0,0
1.443,-16.875,0,0,0,0,0
1.444,-17.188,0,0,0,0,0
1.445,-16.875,0,0,0,0,0
1.446,-16.875,0,0,0,0,0
1.447,-16.875,0,0,0,0,0
1.448,-16.563,0,0,0,0,0
1.449,-16.25,0,0,0,0,0
1.45,-15.625,0,0,0,0,0
1.451,-15.625,0,0,0,0,0
1.452,-15.938,0,0,0,0,0
1.453,-16.25,0,0,0,0,0
1.454,-16.25,0,0,0,0,0
1.455,-15.625,0,0,0,0,0
1.456,-14.688,0,0,0,0,0
1.457,-14.375,0,0,0,0,0
1.458,-13.75,0,0,0,0,0
1.459,-13.75,0,0,0,0,0
1.46,-13.75,0,0,0,0,0
1.461,-13.75,0,0,0,0,0
1.462,-13.438,0,0,0,0,0
1.463,-13.125,0,0,0,0,0
1.464,-13.438,0,0,0,0,0
1.465,-13.125,0,0,0,0,0
1.466,-12.813,0,0,0,0,0
1.467,-12.5,0,0,0,0,0
1.468,-11.563,0,0,0,0,0
1.469,-10.625,0,0,0,0,0
1.47,-10.938,0,0,0,0,0
1.471,-10.625,0,0,0,0,0
1.472,-10,0,0,0,0,0
1.473,-10,0,0,0,0,0
1.474,-9.0625,0,0,0,0,0
1.475,-8.75,0,0,0,0,0
1.476,-8.125,0,0,0,0,0
1.477,-7.5,0,0,0,0,0
1.478,-7.1875,0,0,0,0,0
1.479,-6.875,0,0,0,0,0
1.48,-6.5625,0,0,0,0,0
1.481,-6.875,0,0,0,0,0
1.482,-6.25,0,0,0,0,0
1.483,-6.25,0,0,0,0,0
1.484,-5.9375,0,0,0,0,0
1.485,-5.625,0,0,0,0,0
1.486,-5.3125,0,0,0,0,0
1.487,-5,0,0,0,0,0
1.488,-4.375,0,0,0,0,0
1.489,-4.375,0,0,0,0,0
1.49,-3.75,0,0,0,0,0
1.491,-3.75,0,0,0,0,0
1.492,-3.125,0,0,0,0,0
1.493,-3.125,0,0,0,0,0
1.494,-2.5,0,0,0,0,0
1.495,-2.5,0,0,0,0,0
1.496,-1.875,0,0,0,0,0
1.497,-1.875,0,0,0,0,0
1.498,-1.25,0,0,0,0,0
1.499,-1.25,0,0,0,0,0
1.5,-1.25,0,0,0,0,0
1.501,-0.625,0,0,0,0,0
1.502,-0.9375,0,0,0,0,0
1.503,-0.625,0,0,0,0,0
1.504,-0.625,0,0,0,0,0
1.505,0,0,0,0,0,0
1.506,0.3125,0,0,0,0,0
1.507,0.625,0,0,0,0,0
1.508,0.9375,0,0,0,0,0
1.509,1.25,0,0,0,0,0
1.51,1.25,0,0,0,0,0
1.511,1.25,0,0,0,0,0
1.512,1.875,0,0,0,0,0
1.513,1.875,0,0,0,0,0
1.514,1.875,0,0,0,0,0
1.515,1.875,0,0,0,0,0
1.516,1.5625,0,0,0,0,0
1.517,1.25,0,0,0,0,0
1.518,1.875,0,0,0,0,0
1.519,1.25,0,0,0,0,0
1.52,1.25,0,0,0,0,0
1.521,1.875,0,0,0,0,0
1.522,1.875,0,0,0,0,0
1.523,1.875,0,0,0,0,0
1.524,1.875,0,0,0,0,0
1.525,1.875,0,0,0,0,0
1.526,1.5625,0,0,0,0,0
1.527,1.25,0,0,0,0,0
1.528,1.5625,0,0,0,0,0
1.529,1.875,0,0,0,0,0
1.53,1.875,0,0,0,0,0
1.531,1.875,0,0,0,0,0
1.532,1.875,0,0,0,0,1
1.533,1.25,0,0,0,0,0
1.534,1.25,0,0,0,0,0
1.535,1.875,0,0,0,0,0
1.536,0.9375,0,0,0,0,0
1.537,0.625,0,0,0,0,0
1.538,1.5625,0,0,0,0,0
1.539,1.875,0,0,0,0,0
1.54,1.5625,0,0,0,0,0
1.541,1.875,0,0,0,0,0
1.542,1.875,0,0,0,0,0
1.543,1.875,0,0,0,0,0
1.544,1.5625,0,0,0,0,0
1.545,1.25,0,0,0,0,0
1.546,1.25,0,0,0,0,0
1.547,0.625,0,0,0,0,0
1.548,1.25,0,0,0,0,0
1.549,1.25,0,0,0,0,0
1.55,0.625,0,0,0,0,0
1.551,0.625,0,0,0,0,0
1.552,0.9375,0,0,0,0,0
1.553,0.625,0,0,0,0,0
1.554,1.25,0,0,0,0,0
1.555,1.25,0,0,0,0,0
1.556,0.9375,0,0,0,0,0
1.557,0.625,0,0,0,0,0
1.558,0.625,0,0,0,0,0
1.559,0.625,0,0,0,0,0
1.56,0.625,0,0,0,0,0
1.561,0.625,0,0,0,0,0
1.562,0.625,0,0,0,0,0
1.563,0.625,0,0,0,0,0
1.564,0.9375,0,0,0,0,0
1.565,1.25,0,0,0,0,0
1.566,1.25,0,0,0,0,0
1.567,1.25,0,0,0,0,0
1.568,1.5625,0,0,0,0,0
1.569,1.875,0,0,0,0,0
1.57,1.875,0,0,0,0,0
1.571,1.875,0,0,0,0,0
1.572,2.1875,0,0,0,0,0
1.573,1.875,0,0,0,0,0
1.574,2.1875,0,0,0,0,0
1.575,2.5,0,0,0,0,0
1.576,2.1875,0,0,0,0,0
1.577,1.875,0,0,0,0,0
1.578,2.1875,0,0,0,0,0
1.579,1.25,0,0,0,0,0
1.58,1.5625,0,0,0,0,0
1.581,1.25,0,0,0,0,0
1.582,1.25,0,0,0,0,0
1.583,1.25,0,0,0,0,0
1.584,0.625,0,0,0,0,0
1.585,1.25,0,0,0,0,0
1.586,1.25,0,0,0,0,0
1.587,1.25,0,0,0,0,0
1.588,1.25,0,0,0,0,0
1.589,1.25,0,0,0,0,0
1.59,1.25,0,0,0,0,0
1.591,1.25,0,0,0,0,0
1.592,1.5625,0,0,0,0,0
1.593,1.25,0,0,0,0,0
1.594,1.875,0,0,0,0,0
1.595,1.875,0,0,0,0,0
1.596,2.5,0,0,0,0,0
1.597,1.875,0,0,0,0,0
1.598,1.875,0,0,0,0,0
1.599,1.875,0,0,0,0,0
1.6,2.1875,0,0,0,0,0
1.601,2.5,0,0,0,0,0
1.602,2.5,0,0,0,0,0
1.603,2.5,0,0,0,0,0
1.604,2.1875,0,0,0,0,0
1.605,1.875,0,0,0,0,0
1.606,1.875,0,0,0,0,0
1.607,1.25,0,0,0,0,0
1.608,1.5625,0,0,0,0,0
1.609,1.875,0,0,0,0,0
1.61,1.5625,0,0,0,0,0
1.611,1.25,0,0,0,0,0
1.612,1.5625,0,0,0,0,0
1.613,1.875,0,0,0,0,0
1.614,1.5625,0,0,0,0,0
1.615,1.25,0,0,0,0,0
1.616,1.875,0,0,0,0,0
1.617,1.25,0,0,0,0,0
1.618,1.5625,0,0,0,0,0
1.619,1.875,0,0,0,0,0
1.62,2.1875,0,0,0,0,0
1.621,2.5,0,0,0,0,0
1.622,1.5625,0,0,0,0,0
1.623,1.875,0,0,0,0,0
1.624,2.1875,0,0,0,0,0
1.625,1.875,0,0,0,0,0
1.626,1.875,0,0,0,0,0
1.627,1.875,0,0,0,0,0
1.628,2.8125,0,0,0,0,0
1.629,2.5,0,0,0,0,0
1.63,2.5,0,0,0,0,0
1.631,3.125,0,0,0,0,0
1.632,2.5,0,0,0,0,0
1.633,1.875,0,0,0,0,0
1.634,1.875,0,0,0,0,0
1.635,1.875,0,0,0,0,0
1.636,1.875,0,0,0,0,0
1.637,1.875,0,0,0,0,0
1.638,0.9375,0,0,0,0,0
1.639,0.625,0,0,0,0,0
1.64,1.5625,0,0,0,0,0
1.641,1.25,0,0,0,0,0
1.642,1.25,0,0,0,0,0
1.643,1.25,0,0,0,0,0
1.644,0.9375,0,0,0,0,0
1.645,1.25,0,0,0,0,0
1.646,0.9375,0,0,0,0,0
1.647,1.25,0,0,0,0,0
1.648,1.25,0,0,0,0,0
1.649,1.25,0,0,0,0,0
1.65,1.25,0,0,0,0,0
1.651,1.25,0,0,0,0,0
1.652,1.25,0,0,0,0,0
1.653,1.25,0,0,0,0,0
1.654,1.25,0,0,0,0,0
1.655,1.25,0,0,0,0,0
1.656,1.25,0,0,0,0,0
1.657,1.25,0,0,0,0,0
1.658,1.875,0,0,0,0,0
1.659,1.875,0,0,0,0,0
1.66,1.5625,0,0,0,0,0
1.661,1.25,0,0,0,0,0
1.662,0.9375,0,0,0,0,0
1.663,1.25,0,0,0,0,0
1.664,1.5625,0,0,0,0,0
1.665,1.25,0,0,0,0,0
1.666,1.25,0,0,0,0,0
1.667,1.875,0,0,0,0,0
1.668,0.625,0,0,0,0,0
1.669,0.625,0,0,0,0,0
1.67,0.9375,0,0,0,0,0
1.671,0.625,0,0,0,0,0
1.672,0.9375,0,0,0,0,0
1.673,1.25,0,0,0,0,0
1.674,1.25,0,0,0,0,0
1.675,1.25,0,0,0,0,0
1.676,1.5625,0,0,0,0,0
1.677,1.875,0,0,0,0,0
1.678,1.5625,0,0,0,0,0
1.679,1.25,0,0,0,0,0
1.68,1.25,0,0,0,0,0
1.681,1.25,0,0,0,0,0
1.682,1.25,0,0,0,0,0
1.683,1.25,0,0,0,0,0
1.684,1.5625,0,0,0,0,0
1.685,1.25,0,0,0,0,0
1.686,0.625,0,0,0,0,0
1.687,0.625,0,0,0,0,0
1.688,0.9375,0,0,0,0,0
1.689,1.25,0,0,0,0,0
1.69,1.25,0,0,0,0,0
1.691,1.25,0,0,0,0,0
1.692,1.25,0,0,0,0,0
1.693,1.25,0,0,0,0,0
1.694,1.25,0,0,0,0,0
1.695,0.625,0,0,0,0,0
1.696,0.625,0,0,0,0,0
1.697,1.25,0,0,0,0,0
1.698,0.9375,0,0,0,0,0
1.699,0.625,0,0,0,0,0
1.7,0.625,0,0,0,0,0
1.701,0.625,0,0,0,0,0
1.702,1.25,0,0,0,0,0
1.703,1.25,0,0,0,0,0
1.704,1.25,0,0,0,0,0
1.705,1.25,0,0,0,0,0
1.706,1.875,0,0,0,0,0
1.707,1.25,0,0,0,0,0
1.708,0.9375,0,0,0,0,0
1.709,0.625,0,0,0,0,0
1.71,0.9375,0,0,0,0,0
1.711,1.25,0,0,0,0,0
1.712,1.25,0,0,0,0,0
1.713,1.25,0,0,0,0,0
1.714,0.625,0,0,0,0,0
1.715,1.25,0,0,0,0,0
1.716,0.9375,0,0,0,0,0
1.717,0.625,0,0,0,0,0
1.718,0.9375,0,0,0,0,0
1.719,1.25,0,0,0,0,0
1.72,1.25,0,0,0,0,0
1.721,1.25,0,0,0,0,0
1.722,0.625,0,0,0,0,0
1.723,0.625,0,0,0,0,0
1.724,0.9375,0,0,0,0,0
1.725,0.625,0,0,0,0,0
1.726,0.9375,0,0,0,0,0
1.727,1.25,0,0,0,0,0
1.728,0.9375,0,0,0,0,0
1.729,0.625,0,0,0,0,0
1.73,1.5625,0,0,0,0,0
1.731,1.875,0,0,0,0,0
1.732,1.875,0,0,0,0,0
1.733,1.875,0,0,0,0,0
1.734,2.5,0,0,0,0,0
1.735,2.5,0,0,0,0,0
1.736,2.5,0,0,0,0,0
1.737,2.5,0,0,0,0,0
1.738,2.8125,0,0,0,0,0
1.739,2.5,0,0,0,0,0
1.74,3.125,0,0,0,0,0
1.741,3.125,0,0,0,0,0
1.742,3.4375,0,0,0,0,0
1.743,3.75,0,0,0,0,0
1.744,4.375,0,0,0,0,0
1.745,4.375,0,0,0,0,0
1.746,4.375,0,0,0,0,0
1.747,4.375,0,0,0,0,0
1.748,5,0,0,0,0,0
1.749,5,0,0,0,0,0
1.75,5,0,0,0,0,0
1.751,5,0,0,0,0,0
1.752,4.6875,0,0,0,0,0
1.753,4.375,0,0,0,0,0
1.754,4.375,0,0,0,0,0
1.755,4.375,0,0,0,0,0
1.756,4.6875,0,0,0,0,0
1.757,5,0,0,0,0,0
1.758,5.9375,0,0,0,0,0
1.759,6.25,0,0,0,0,0
1.76,5.3125,0,0,0,0,0
1.761,5.625,0,0,0,0,0
1.762,5.9375,0,0,0,0,0
1.763,5.625,0,0,0,0,0
1.764,6.5625,0,0,0,0,0
1.765,6.25,0,0,0,0,0
1.766,6.25,0,0,0,0,0
1.767,6.875,0,0,0,0,0
1.768,6.875,0,0,0,0,0
1.769,6.875,0,0,0,0,0
1.77,6.875,0,0,0,0,0
1.771,6.875,0,0,0,0,0
1.772,6.875,0,0,0,0,0
1.773,6.875,0,0,0,0,0
1.774,6.875,0,0,0,0,0
1.775,6.875,0,0,0,0,0
1.776,5.9375,0,0,0,0,0
1.777,5.625,0,0,0,0,0
1.778,6.25,0,0,0,0,0
1.779,6.25,0,0,0,0,0
1.78,6.25,0,0,0,0,0
1.781,6.875,0,0,0,0,0
1.782,5.9375,0,0,0,0,0
1.783,5.625,0,0,0,0,0
1.784,5,0,0,0,0,0
1.785,5,0,0,0,0,0
1.786,5.3125,0,0,0,0,0
1.787,5,0,0,0,0,0
1.788,3.75,0,0,0,0,0
1.789,2.5,0,0,0,0,0
1.79,1.875,0,0,0,0,0
1.791,0.625,0,0,0,0,0
1.792,0.9375,0,0,0,0,0
1.793,0.625,0,0,0,0,0
1.794,0.625,0,0,0,0,0
1.795,0.625,0,0,0,0,0
1.796,0.3125,0,0,0,0,0
1.797,0.625,0,0,0,0,0
1.798,0.3125,0,0,0,0,0
1.799,0,0,0,0,0,0
1.8,0,0,0,0,0,0
1.801,0,0,0,0,0,0
1.802,0,0,0,0,0,0
1.803,-0.625,0,0,0,0,0
1.804,-0.625,0,0,0,0,0
1.805,-0.625,0,0,0,0,0
1.806,-0.3125,0,0,0,0,0
1.807,0,0,0,0,0,0
1.808,-0.3125,0,0,0,0,0
1.809,-0.625,0,0,0,0,0
1.81,-0.625,0,0,0,0,0
1.811,-0.625,0,0,0,0,0
1.812,-1.5625,0,0,0,0,0
1.813,-1.25,0,0,0,0,0
1.814,-1.25,0,0,0,0,0
1.815,-1.25,0,0,0,0,0
1.816,-0.9375,0,0,0,0,0
1.817,-1.25,0,0,0,0,0
1.818,-1.5625,0,0,0,0,0
1.819,-1.25,0,0,0,0,0
1.82,-1.25,0,0,0,0,0
1.821,-1.25,0,0,0,0,0
1.822,-1.25,0,0,0,0,0
1.823,-1.25,0,0,0,0,0
1.824,-0.625,0,0,0,0,0
1.825,-0.625,0,0,0,0,0
1.826,-0.9375,0,0,0,0,0
1.827,-0.625,0,0,0,0,0
1.828,-0.9375,0,0,0,0,0
1.829,-1.25,0,0,0,0,0
1.83,-0.625,0,0,0,0,0
1.831,-0.625,0,0,0,0,0
1.832,-0.625,0,0,0,0,0
1.833,-0.625,0,0,0,0,0
1.834,-0.9375,0,0,0,0,0
1.835,-0.625,0,0,0,0,0
1.836,-0.9375,0,0,0,0,0
1.837,-1.25,0,0,0,0,0
1.838,-0.9375,0,0,0,0,0
1.839,-0.625,0,0,0,0,0
1.84,-0.3125,0,0,0,0,0
1.841,0,0,0,0,0,0
1.842,-0.3125,0,0,0,0,0
1.843,0,0,0,0,0,0
1.844,0.3125,0,0,0,0,0
1.845,0.625,0,0,0,0,0
1.846,0.3125,0,0,0,0,0
1.847,0,0,0,0,0,0
1.848,-0.3125,0,0,0,0,0
1.849,-0.625,0,0,0,0,0
1.85,0,0,0,0,0,0
1.851,0,0,0,0,0,0
1.852,0,0,0,0,0,0
1.853,-0.625,0,0,0,0,0
1.854,-0.9375,0,0,0,0,0
1.855,-0.625,0,0,0,0,0
1.856,-1.25,0,0,0,0,0
1.857,-1.25,0,0,0,0,0
1.858,-1.5625,0,0,0,0,0
1.859,-1.875,0,0,0,0,0
1.86,-1.25,0,0,0,0,0
1.861,-1.25,0,0,0,0,0
1.862,-0.9375,0,0,0,0,0
1.863,-0.625,0,0,0,0,0
1.864,-1.5625,0,0,0,0,0
1.865,-1.875,0,0,0,0,0
1.866,-1.875,0,0,0,0,0
1.867,-1.875,0,0,0,0,0
1.868,-1.25,0,0,0,0,0
1.869,-1.25,0,0,0,0,0
1.87,-1.25,0,0,0,0,0
1.871,-1.25,0,0,0,0,0
1.872,-0.9375,0,0,0,0,0
1.873,-0.625,0,0,0,0,0
1.874,-0.9375,0,0,0,0,0
1.875,-1.25,0,0,0,0,0
1.876,-1.5625,0,0,0,0,0
1.877,-1.875,0,0,0,0,0
1.878,-1.5625,0,0,0,0,0
1.879,-1.25,0,0,0,0,0
1.88,-1.25,0,0,0,0,0
1.881,-1.875,0,0,0,0,0
1.882,-2.5,0,0,0,0,0
1.883,-2.5,0,0,0,0,0
1.884,-1.25,0,0,0,0,0
1.885,-1.25,0,0,0,0,0
1.886,-1.25,1,0,0,0,0
1.887,-0.625,0,0,0,0,0
1.888,-0.625,0,0,0,0,0
1.889,-0.625,0,0,0,0,0
1.89,-0.625,0,0,0,0,0
1.891,-0.625,0,0,0,0,0
1.892,-0.3125,0,0,0,0,0
1.893,0,0,0,0,0,0
1.894,0,0,0,0,0,0
1.895,0,0,0,0,0,0
1.896,0.3125,0,0,0,0,0
1.897,0.625,0,0,0,0,0
1.898,0.3125,0,0,0,0,0
1.899,0,0,0,0,0,0
1.9,-0.3125,0,0,0,0,0
1.901,-0.625,0,0,0,0,0
1.902,0,0,0,0,0,0
1.903,0,0,0,0,0,0
1.904,-0.3125,0,0,0,0,0
1.905,-0.625,0,0,0,0,0
1.906,-0.625,0,0,0,0,0
1.907,-0.625,0,0,0,0,0
1.908,0,0,0,0,0,0
1.909,0.625,0,0,0,0,0
1.91,0.9375,0,0,0,0,0
1.911,1.875,0,0,0,0,0
1.912,2.5,0,0,0,0,0
1.913,3.125,0,0,0,0,0
1.914,2.8125,0,0,0,0,0
1.915,3.125,0,0,0,0,0
1.916,3.125,0,0,0,0,0
1.917,3.125,0,0,0,0,0
1.918,4.375,0,0,0,0,0
1.919,5,0,0,0,0,0
1.92,5.9375,0,0,0,0,0
1.921,6.875,0,0,0,0,0
1.922,6.875,0,0,0,0,0
1.923,7.5,0,0,0,0,0
1.924,8.125,0,0,0,0,0
1.925,9.375,0,0,0,0,0
1.926,10.313,0,0,0,0,0
1.927,11.25,0,0,0,0,0
1.928,11.25,0,0,0,0,0
1.929,12.5,0,0,0,0,0
1.93,12.813,0,0,0,0,0
1.931,13.75,0,0,0,0,0
1.932,14.375,0,0,0,0,0
1.933,15,0,0,0,0,0
1.934,15.938,0,0,0,0,0
1.935,16.875,0,0,0,0,0
1.936,18.438,0,0,0,0,0
1.937,19.375,0,0,0,0,0
1.938,21.25,0,0,0,0,0
1.939,21.875,0,0,0,0,0
1.94,21.875,0,0,0,0,0
1.941,21.875,0,0,0,0,0
1.942,20.938,0,0,0,0,0
1.943,19.375,0,0,0,0,0
1.944,17.5,0,0,0,0,0
1.945,15.625,0,0,0,0,0
1.946,15.313,0,0,0,0,0
1.947,15.625,0,0,0,0,0
1.948,14.375,0,0,0,0,0
1.949,13.125,0,0,0,0,0
1.95,12.813,0,0,0,0,0
1.951,12.5,0,0,0,0,0
1.952,11.25,0,0,0,0,0
1.953,9.375,0,0,0,0,0
1.954,7.1875,0,0,0,0,0
1.955,5,0,0,0,0,0
1.956,2.5,0,0,0,0,0
1.957,-1.25,0,0,0,0,0
1.958,-5.3125,0,0,0,0,0
1.959,-8.75,0,0,0,0,0
1.96,-11.563,0,0,0,0,0
1.961,-13.75,0,0,0,0,0
1.962,-15.313,0,0,0,0,0
1.963,-15,0,0,0,0,0
1.964,-15.313,0,0,0,0,0
1.965,-14.375,0,0,0,0,0
1.966,-11.563,0,0,0,0,0
1.967,-9.375,0,0,0,0,0
1.968,-6.5625,0,0,0,0,0
1.969,-3.75,0,0,0,0,0
1.97,0.9375,0,0,0,0,0
1.971,5,0,0,0,0,0
1.972,7.8125,0,0,0,0,0
1.973,10,0,0,0,0,0
1.974,11.875,0,0,0,0,0
1.975,13.75,0,0,0,0,0
1.976,14.688,0,0,0,0,0
1.977,15.625,0,0,0,0,0
1.978,17.5,0,0,0,0,0
1.979,19.375,0,0,0,0,0
1.98,21.563,0,0,0,0,0
1.981,23.125,0,0,0,0,0
1.982,24.375,0,0,0,0,0
1.983,25,0,0,0,0,0
1.984,26.25,0,0,0,0,0
1.985,26.25,0,0,0,0,0
1.986,27.5,0,0,0,0,0
1.987,28.125,0,0,0,0,0
1.988,28.438,0,0,0,0,0
1.989,28.75,0,0,0,0,0
1.99,29.688,0,0,0,0,0
1.991,30,0,0,0,0,0
1.992,30.625,0,0,0,0,0
1.993,31.25,0,0,0,0,0
1.994,31.875,0,0,0,0,0
1.995,31.875,0,0,0,0,0
1.996,32.813,0,0,0,0,0
1.997,33.125,0,1,0,0,0
1.998,34.063,0,0,0,0,0
1.999,34.375,0,0,0,0,0
2,35.313,0,0,0,0,0
2.001,35,0,0,0,0,0
2.002,35,0,0,0,0,0
2.003,35,0,0,0,0,0
2.004,35,0,0,0,0,0
2.005,35,0,0,0,0,0
2.006,34.688,0,0,0,0,0
2.007,35,0,0,0,0,0
2.008,34.375,0,0,0,0,0
2.009,33.75,0,0,0,0,0
2.01,33.438,0,0,0,0,0
2.011,33.75,0,0,0,0,0
2.012,33.75,0,0,0,0,0
2.013,33.75,0,0,0,0,0
2.014,33.75,0,0,0,0,0
2.015,33.125,0,0,0,0,0
2.016,32.5,0,0,0,0,0
2.017,31.875,0,0,0,0,0
2.018,31.25,0,0,0,0,0
2.019,31.25,0,0,0,0,0
2.02,30.313,0,0,0,0,0
2.021,29.375,0,0,0,0,0
2.022,28.438,0,0,0,0,0
2.023,28.125,0,0,0,0,0
2.024,27.188,0,0,0,0,0
2.025,26.25,0,0,0,0,0
2.026,25.938,0,0,0,0,0
2.027,25,0,0,0,0,0
2.028,24.063,0,0,0,0,0
2.029,23.75,0,0,0,0,0
2.03,22.813,0,0,0,0,0
2.031,22.5,0,0,0,0,0
2.032,21.563,0,0,0,0,0
2.033,20.625,0,0,0,0,0
2.034,19.375,0,0,0,0,0
2.035,18.75,0,0,0,0,0
2.036,18.438,0,0,0,0,0
2.037,18.125,0,0,0,0,0
2.038,17.188,0,0,0,0,0
2.039,16.25,0,0,0,0,0
2.04,15.938,0,0,0,0,0
2.041,15.625,0,0,0,0,0
2.042,15,0,0,0,0,0
2.043,14.375,0,0,0,0,0
2.044,14.375,0,0,0,0,0
2.045,13.125,0,0,0,0,0
2.046,11.875,0,0,0,0,0
2.047,10.625,0,0,0,0,0
2.048,10,0,0,0,0,0
2.049,8.75,0,0,0,0,0
2.05,7.1875,0,0,0,0,0
2.051,5.625,0,0,0,0,0
2.052,5.3125,0,0,0,0,0
2.053,5,0,0,0,0,0
2.054,3.75,0,0,0,0,0
2.055,2.5,0,0,0,0,0
2.056,2.1875,0,0,0,0,0
2.057,1.25,0,0,0,0,0
2.058,0.3125,0,0,0,0,0
2.059,-0.625,0,0,0,0,0
2.06,-1.25,0,0,0,0,0
2.061,-1.875,0,0,0,0,0
2.062,-1.25,0,0,0,0,0
2.063,-1.25,0,0,0,0,0
2.064,-1.25,0,0,0,0,0
2.065,-1.875,0,0,0,0,0
2.066,-1.5625,0,0,0,0,0
2.067,-1.25,0,0,0,0,0
2.068,-1.5625,0,0,0,0,0
2.069,-1.25,0,0,0,0,0
2.07,-1.5625,0,0,0,0,0
2.071,-1.875,0,0,0,0,0
2.072,-1.5625,0,0,0,0,0
2.073,-1.25,0,0,0,0,0
2.074,-0.9375,0,0,0,0,0
2.075,-1.25,0,0,0,0,0
2.076,-0.9375,0,0,0,0,0
2.077,-1.25,0,0,1,0,0
2.078,-1.875,0,0,0,0,0
2.079,-1.875,0,0,0,0,0
2.08,-2.1875,0,0,0,0,0
2.081,-2.5,0,0,0,0,0
2.082,-2.1875,0,0,0,0,0
2.083,-2.5,0,0,0,0,0
2.084,-2.8125,0,0,0,0,0
2.085,-3.125,0,0,0,0,0
2.086,-2.8125,0,0,0,0,0
2.087,-2.5,0,0,0,0,0
2.088,-2.8125,0,0,0,0,0
2.089,-3.125,0,0,0,0,0
2.09,-2.5,0,0,0,0,0
2.091,-2.5,0,0,0,0,0
2.092,-2.5,0,0,0,0,0
2.093,-2.5,0,0,0,0,0
2.094,-2.1875,0,0,0,0,0
2.095,-2.5,0,0,0,0,0
2.096,-2.8125,0,0,0,0,0
2.097,-3.125,0,0,0,0,0
2.098,-2.8125,0,0,0,0,0
2.099,-3.125,0,0,0,0,0
2.1,-2.5,0,0,0,0,0
2.101,-2.5,0,0,0,0,0
2.102,-3.125,0,0,0,0,0
2.103,-3.125,0,0,0,0,0
2.104,-3.125,0,0,0,0,0
2.105,-3.125,0,0,0,0,0
2.106,-3.125,0,0,0,0,0
2.107,-3.125,0,0,0,0,0
2.108,-3.75,0,0,0,0,0
2.109,-3.125,0,0,0,0,0
2.11,-3.125,0,0,0,0,0
2.111,-3.75,0,0,0,0,0
2.112,-3.75,0,0,0,0,0
2.113,-3.75,0,0,0,0,0
2.114,-4.0625,0,0,0,0,0
2.115,-4.375,0,0,0,0,0
2.116,-4.375,0,0,0,0,0
2.117,-4.375,0,0,0,0,0
2.118,-4.375,0,0,0,0,0
2.119,-4.375,0,0,0,0,0
2.12,-4.375,0,0,0,0,0
2.121,-4.375,0,0,0,0,0
2.122,-4.0625,0,0,0,0,0
2.123,-3.75,0,0,0,0,0
2.124,-4.0625,0,0,0,0,0
2.125,-4.375,0,0,0,0,0
2.126,-4.375,0,0,0,0,0
2.127,-4.375,0,0,0,0,0
2.128,-4.0625,0,0,0,0,0
2.129,-3.75,0,0,0,0,0
2.13,-3.4375,0,0,0,0,0
2.131,-3.75,0,0,0,0,0
2.132,-4.0625,0,0,0,0,0
2.133,-4.375,0,0,0,0,0
2.134,-3.75,0,0,0,0,0
2.135,-4.375,0,0,0,0,0
2.136,-4.0625,0,0,0,0,0
2.137,-3.75,0,0,0,0,0
2.138,-3.125,0,0,0,0,0
2.139,-3.125,0,0,0,0,0
2.14,-3.125,0,0,0,0,0
2.141,-3.125,0,0,0,0,0
2.142,-3.125,0,0,0,0,0
2.143,-3.125,0,0,0,0,0
2.144,-3.125,0,0,0,0,0
2.145,-3.75,0,0,0,0,0
2.146,-4.0625,0,0,0,0,0
2.147,-4.375,0,0,0,0,0
2.148,-4.6875,0,0,0,0,0
2.149,-5,0,0,0,0,0
2.15,-5,0,0,0,0,0
2.151,-5,0,0,0,0,0
2.152,-5,0,0,0,0,0
2.153,-5,0,0,0,0,0
2.154,-5.3125,0,0,0,0,0
2.155,-5.625,0,0,0,0,0
2.156,-6.25,0,0,0,0,0
2.157,-6.25,0,0,0,0,0
2.158,-6.25,0,0,0,0,0
2.159,-6.25,0,0,0,0,0
2.16,-6.25,0,0,0,0,0
2.161,-6.25,0,0,0,0,0
2.162,-6.875,0,0,0,0,0
2.163,-6.875,0,0,0,0,0
2.164,-6.5625,0,0,0,0,0
2.165,-6.25,0,0,0,0,0
2.166,-6.25,0,0,0,0,0
2.167,-6.25,0,0,0,0,0
2.168,-6.5625,0,0,0,0,0
2.169,-6.25,0,0,0,0,0
2.17,-7.1875,0,0,0,0,0
2.171,-6.875,0,0,0,0,0
2.172,-7.5,0,0,0,0,0
2.173,-7.5,0,0,0,0,0
2.174,-7.1875,0,0,0,0,0
2.175,-7.5,0,0,0,0,0
2.176,-7.8125,0,0,0,0,0
2.177,-8.125,0,0,0,0,0
2.178,-8.125,0,0,0,0,0
2.179,-8.125,0,0,0,0,0
2.18,-7.8125,0,0,0,0,0
2.181,-7.5,0,0,0,0,0
2.182,-8.125,0,0,0,0,0
2.183,-8.125,0,0,0,0,0
2.184,-8.125,0,0,0,0,0
2.185,-8.125,0,0,0,0,0
2.186,-8.75,0,0,0,0,0
2.187,-8.75,0,0,0,0,0
2.188,-9.375,0,0,0,0,0
2.189,-9.375,0,0,0,0,0
2.19,-9.0625,0,0,0,0,0
2.191,-9.375,0,0,0,0,0
2.192,-9.6875,0,0,0,0,0
2.193,-10,0,0,0,0,0
2.194,-9.6875,0,0,0,0,0
2.195,-9.375,0,0,0,0,0
2.196,-10.625,0,0,0,0,0
2.197,-11.25,0,0,0,0,0
2.198,-10.938,0,0,0,0,0
2.199,-11.25,0,0,0,0,0
2.2,-11.25,0,0,0,0,0
2.201,-11.25,0,0,0,0,0
2.202,-11.563,0,0,0,0,0
2.203,-11.25,0,0,0,0,0
2.204,-11.563,0,0,0,0,0
2.205,-11.875,0,0,0,0,0
2.206,-12.813,0,0,0,0,0
2.207,-13.125,0,0,0,0,0
2.208,-13.125,0,0,0,0,0
2.209,-13.125,0,0,0,0,0
2.21,-13.438,0,0,0,0,0
2.211,-13.75,0,0,0,0,0
2.212,-13.438,0,0,0,0,0
2.213,-13.125,0,0,0,0,0
2.214,-13.75,0,0,0,0,0
2.215,-13.75,0,0,0,0,0
2.216,-14.063,0,0,0,0,0
2.217,-14.375,0,0,0,0,0
2.218,-14.375,0,0,0,0,0
2.219,-14.375,0,0,0,0,0
2.22,-14.375,0,0,0,0,0
2.221,-14.375,0,0,0,0,0
2.222,-14.688,0,0,0,0,0
2.223,-14.375,0,0,0,0,0
2.224,-14.375,0,0,0,0,0
2.225,-14.375,0,0,0,0,0
2.226,-14.375,0,0,0,0,0
2.227,-14.375,0,0,0,0,0
2.228,-14.375,0,0,0,0,0
2.229,-13.75,0,0,0,0,0
2.23,-13.75,0,0,0,1,0
2.231,-13.75,0,0,0,0,0
2.232,-13.438,0,0,0,0,0
2.233,-13.75,0,0,0,0,0
2.234,-13.75,0,0,0,0,0
2.235,-13.75,0,0,0,0,0
2.236,-13.438,0,0,0,0,0
2.237,-13.75,0,0,0,0,0
2.238,-14.063,0,0,0,0,0
2.239,-14.375,0,0,0,0,0
2.24,-14.063,0,0,0,0,0
2.241,-14.375,0,0,0,0,0
2.242,-14.063,0,0,0,0,0
2.243,-13.75,0,0,0,0,0
2.244,-13.75,0,0,0,0,0
2.245,-13.125,0,0,0,0,0
2.246,-12.813,0,0,0,0,0
2.247,-12.5,0,0,0,0,0
2.248,-12.813,0,0,0,0,0
2.249,-13.125,0,0,0,0,0
2.25,-12.5,0,0,0,0,0
2.251,-11.875,0,0,0,0,0
2.252,-11.875,0,0,0,0,0
2.253,-11.25,0,0,0,0,0
2.254,-10.938,0,0,0,0,0
2.255,-10.625,0,0,0,0,0
2.256,-10.938,0,0,0,0,0
2.257,-10.625,0,0,0,0,0
2.258,-10,0,0,0,0,0
2.259,-10,0,0,0,0,0
2.26,-9.375,0,0,0,0,0
2.261,-9.375,0,0,0,0,0
2.262,-9.375,0,0,0,0,0
2.263,-8.75,0,0,0,0,0
2.264,-7.8125,0,0,0,0,0
2.265,-7.5,0,0,0,0,0
2.266,-7.1875,0,0,0,0,0
2.267,-6.875,0,0,0,0,0
2.268,-7.1875,0,0,0,0,0
2.269,-6.875,0,0,0,0,0
2.27,-7.1875,0,0,0,0,0
2.271,-6.875,0,0,0,0,0
2.272,-6.25,0,0,0,0,0
2.273,-6.25,0,0,0,0,0
2.274,-5.9375,0,0,0,0,0
2.275,-5,0,0,0,0,0
2.276,-5,0,0,0,0,0
2.277,-4.375,0,0,0,0,0
2.278,-4.6875,0,0,0,0,0
2.279,-4.375,0,0,0,0,0
2.28,-3.75,0,0,0,0,0
2.281,-3.75,0,0,0,0,0
2.282,-3.4375,0,0,0,0,0
2.283,-2.5,0,0,0,0,0
2.284,-2.5,0,0,0,0,0
2.285,-1.875,0,0,0,0,0
2.286,-1.875,0,0,0,0,0
2.287,-1.25,0,0,0,0,0
2.288,-1.25,0,0,0,0,0
2.289,-0.625,0,0,0,0,0
2.29,-0.9375,0,0,0,0,0
2.291,-0.625,0,0,0,0,0
2.292,-0.625,0,0,0,0,0
2.293,0,0,0,0,0,0
2.294,0.3125,0,0,0,0,0
2.295,0.625,0,0,0,0,0
2.296,1.25,0,0,0,0,0
2.297,1.25,0,0,0,0,0
2.298,1.5625,0,0,0,0,0
2.299,1.25,0,0,0,0,0
2.3,1.875,0,0,0,0,0
2.301,1.875,0,0,0,0,0
2.302,2.5,0,0,0,0,0
2.303,3.125,0,0,0,0,0
2.304,2.8125,0,0,0,0,0
2.305,2.5,0,0,0,0,0
2.306,1.875,0,0,0,0,0
2.307,1.875,0,0,0,0,0
2.308,2.1875,0,0,0,0,0
2.309,2.5,0,0,0,0,0
2.31,3.125,0,0,0,0,0
2.311,3.75,0,0,0,0,0
2.312,3.4375,0,0,0,0,0
2.313,3.75,0,0,0,0,0
2.314,3.125,0,0,0,0,0
2.315,3.125,0,0,0,0,0
2.316,3.75,0,0,0,0,0
2.317,3.75,0,0,0,0,0
2.318,3.4375,0,0,0,0,0
2.319,3.125,0,0,0,0,0
2.32,2.8125,0,0,0,0,1
2.321,2.5,0,0,0,0,0
2.322,3.125,0,0,0,0,0
2.323,3.75,0,0,0,0,0
2.324,3.75,0,0,0,0,0
2.325,3.75,0,0,0,0,0
2.326,4.0625,0,0,0,0,0
2.327,4.375,0,0,0,0,0
2.328,3.75,0,0,0,0,0
2.329,3.75,0,0,0,0,0
2.33,4.6875,0,0,0,0,0
2.331,4.375,0,0,0,0,0
2.332,3.75,0,0,0,0,0
2.333,3.75,0,0,0,0,0
2.334,4.0625,0,0,0,0,0
2.335,3.75,0,0,0,0,0
2.336,3.75,0,0,0,0,0
2.337,3.75,0,0,0,0,0
2.338,3.4375,0,0,0,0,0
2.339,3.125,0,0,0,0,0
2.34,3.125,0,0,0,0,0
2.341,3.125,0,0,0,0,0
2.342,2.1875,0,0,0,0,0
2.343,2.5,0,0,0,0,0
2.344,2.8125,0,0,0,0,0
2.345,2.5,0,0,0,0,0
2.346,2.1875,0,0,0,0,0
2.347,2.5,0,0,0,0,0
2.348,2.5,0,0,0,0,0
2.349,2.5,0,0,0,0,0
2.35,2.1875,0,0,0,0,0
2.351,2.5,0,0,0,0,0
2.352,2.5,0,0,0,0,0
2.353,2.5,0,0,0,0,0
2.354,2.8125,0,0,0,0,0
2.355,3.125,0,0,0,0,0
2.356,3.125,0,0,0,0,0
2.357,3.125,0,0,0,0,0
2.358,2.8125,0,0,0,0,0
2.359,2.5,0,0,0,0,0
2.36,2.5,0,0,0,0,0
2.361,2.5,0,0,0,0,0
2.362,2.5,0,0,0,0,0
2.363,2.5,0,0,0,0,0
2.364,2.5,0,0,0,0,0
2.365,2.5,0,0,0,0,0
2.366,2.8125,0,0,0,0,0
2.367,3.125,0,0,0,0,0
2.368,2.1875,0,0,0,0,0
2.369,1.875,0,0,0,0,0
2.37,2.1875,0,0,0,0,0
2.371,2.5,0,0,0,0,0
2.372,2.5,0,0,0,0,0
2.373,3.125,0,0,0,0,0
2.374,1.875,0,0,0,0,0
2.375,1.875,0,0,0,0,0
2.376,1.875,0,0,0,0,0
2.377,1.875,0,0,0,0,0
2.378,2.1875,0,0,0,0,0
2.379,1.875,0,0,0,0,0
2.38,2.1875,0,0,0,0,0
2.381,1.875,0,0,0,0,0
2.382,1.875,0,0,0,0,0
2.383,1.875,0,0,0,0,0
2.384,1.875,0,0,0,0,0
2.385,1.875,0,0,0,0,0
2.386,2.1875,0,0,0,0,0
2.387,2.5,0,0,0,0,0
2.388,1.5625,0,0,0,0,0
2.389,1.875,0,0,0,0,0
2.39,1.5625,0,0,0,0,0
2.391,1.875,0,0,0,0,0
2.392,1.25,0,0,0,0,0
2.393,1.25,0,0,0,0,0
2.394,1.25,0,0,0,0,0
2.395,1.25,0,0,0,0,0
2.396,1.25,0,0,0,0,0
2.397,1.25,0,0,0,0,0
2.398,0.9375,0,0,0,0,0
2.399,0.625,0,0,0,0,0
2.4,0.9375,0,0,0,0,0
2.401,1.25,0,0,0,0,0
2.402,0.9375,0,0,0,0,0
2.403,1.25,0,0,0,0,0
2.404,1.5625,0,0,0,0,0
2.405,1.875,0,0,0,0,0
2.406,1.875,0,0,0,0,0
2.407,1.875,0,0,0,0,0
2.408,1.875,0,0,0,0,0
2.409,1.875,0,0,0,0,0
2.41,1.5625,0,0,0,0,0
2.411,1.875,0,0,0,0,0
2.412,0.9375,0,0,0,0,0
2.413,0.625,0,0,0,0,0
2.414,0.625,0,0,0,0,0
2.415,0.625,0,0,0,0,0
2.416,0.9375,0,0,0,0,0
2.417,0.625,0,0,0,0,0
2.418,1.25,0,0,0,0,0
2.419,1.25,0,0,0,0,0
2.42,0.9375,0,0,0,0,0
2.421,1.25,0,0,0,0,0
2.422,1.25,0,0,0,0,0
2.423,1.875,0,0,0,0,0
2.424,1.25,0,0,0,0,0
2.425,1.25,0,0,0,0,0
2.426,1.875,0,0,0,0,0
2.427,1.875,0,0,0,0,0
2.428,1.875,0,0,0,0,0
2.429,1.875,0,0,0,0,0
2.43,1.875,0,0,0,0,0
2.431,1.875,0,0,0,0,0
2.432,2.5,0,0,0,0,0
2.433,2.5,0,0,0,0,0
2.434,1.875,0,0,0,0,0
2.435,1.875,0,0,0,0,0
2.436,1.25,0,0,0,0,0
2.437,1.25,0,0,0,0,0
2.438,1.25,0,0,0,0,0
2.439,1.25,0,0,0,0,0
2.44,2.1875,0,0,0,0,0
2.441,1.875,0,0,0,0,0
2.442,1.5625,0,0,0,0,0
2.443,1.25,0,0,0,0,0
2.444,1.5625,0,0,0,0,0
2.445,1.875,0,0,0,0,0
2.446,1.875,0,0,0,0,0
2.447,1.875,0,0,0,0,0
2.448,1.875,0,0,0,0,0
2.449,1.875,0,0,0,0,0
2.45,1.5625,0,0,0,0,0
2.451,1.25,0,0,0,0,0
2.452,1.5625,0,0,0,0,0
2.453,1.875,0,0,0,0,0
2.454,1.25,0,0,0,0,0
2.455,1.25,0,0,0,0,0
2.456,1.25,0,0,0,0,0
2.457,1.25,0,0,0,0,0
2.458,1.25,0,0,0,0,0
2.459,0.625,0,0,0,0,0
2.46,-0.3125,0,0,0,0,0
2.461,-0.625,0,0,0,0,0
2.462,0.3125,0,0,0,0,0
2.463,0,0,0,0,0,0
2.464,0.625,0,0,0,0,0
2.465,0.625,0,0,0,0,0
2.466,0,0,0,0,0,0
2.467,0,0,0,0,0,0
2.468,-0.3125,0,0,0,0,0
2.469,-0.625,0,0,0,0,0
2.47,-0.3125,0,0,0,0,0
2.471,0,0,0,0,0,0
2.472,0,0,0,0,0,0
2.473,0,0,0,0,0,0
2.474,0,0,0,0,0,0
2.475,0,0,0,0,0,0
2.476,-0.3125,0,0,0,0,0
2.477,-0.625,0,0,0,0,0
2.478,-0.9375,0,0,0,0,0
2.479,-0.625,0,0,0,0,0
2.48,-0.625,0,0,0,0,0
2.481,-1.25,0,0,0,0,0
2.482,-1.25,0,0,0,0,0
2.483,-1.25,0,0,0,0,0
2.484,-1.25,0,0,0,0,0
2.485,-1.25,0,0,0,0,0
2.486,-1.25,0,0,0,0,0
2.487,-1.25,0,0,0,0,0
2.488,-0.9375,0,0,0,0,0
2.489,-0.625,0,0,0,0,0
2.49,-0.9375,0,0,0,0,0
2.491,-0.625,0,0,0,0,0
2.492,0,0,0,0,0,0
2.493,0,0,0,0,0,0
2.494,0,0,0,0,0,0
2.495,0,0,0,0,0,0
2.496,0.3125,0,0,0,0,0
2.497,0.625,0,0,0,0,0
2.498,0,0,0,0,0,0
2.499,0,0,0,0,0,0
2.5,0,0,0,0,0,0
2.501,0.625,0,0,0,0,0
2.502,0,0,0,0,0,0
2.503,0,0,0,0,0,0
2.504,0,0,0,0,0,0
2.505,0,0,0,0,0,0
2.506,-0.3125,0,0,0,0,0
2.507,-0.625,0,0,0,0,0
2.508,-1.25,0,0,0,0,0
2.509,-1.25,0,0,0,0,0
2.51,-0.9375,0,0,0,0,0
2.511,-0.625,0,0,0,0,0
2.512,-0.625,0,0,0,0,0
2.513,-0.625,0,0,0,0,0
2.514,-0.625,0,0,0,0,0
2.515,-0.625,0,0,0,0,0
2.516,-0.9375,0,0,0,0,0
2.517,-1.25,0,0,0,0,0
2.518,-0.9375,0,0,0,0,0
2.519,-1.25,0,0,0,0,0
2.52,-0.9375,0,0,0,0,0
2.521,-1.25,0,0,0,0,0
2.522,-1.25,0,0,0,0,0
2.523,-1.25,0,0,0,0,0
2.524,-0.625,0,0,0,0,0
2.525,-0.625,0,0,0,0,0
2.526,-0.3125,0,0,0,0,0
2.527,0,0,0,0,0,0
2.528,-0.3125,0,0,0,0,0
2.529,0,0,0,0,0,0
2.53,0.3125,0,0,0,0,0
2.531,0.625,0,0,0,0,0
2.532,0.9375,0,0,0,0,0
2.533,1.25,0,0,0,0,0
2.534,1.875,0,0,0,0,0
2.535,1.875,0,0,0,0,0
2.536,1.875,0,0,0,0,0
2.537,1.875,0,0,0,0,0
2.538,2.1875,0,0,0,0,0
2.539,2.5,0,0,0,0,0
2.54,2.5,0,0,0,0,0
2.541,2.5,0,0,0,0,0
2.542,2.5,0,0,0,0,0
2.543,2.5,0,0,0,0,0
2.544,2.5,0,0,0,0,0
2.545,2.5,0,0,0,0,0
2.546,2.8125,0,0,0,0,0
2.547,3.125,0,0,0,0,0
2.548,2.8125,0,0,0,0,0
2.549,2.5,0,0,0,0,0
2.55,2.8125,0,0,0,0,0
2.551,3.125,0,0,0,0,0
2.552,3.125,0,0,0,0,0
2.553,3.125,0,0,0,0,0
2.554,3.125,0,0,0,0,0
2.555,3.125,0,0,0,0,0
2.556,3.125,0,0,0,0,0
2.557,3.125,0,0,0,0,0
2.558,2.8125,0,0,0,0,0
2.559,2.5,0,0,0,0,0
2.56,2.8125,0,0,0,0,0
2.561,3.125,0,0,0,0,0
2.562,3.125,0,0,0,0,0
2.563,3.125,0,0,0,0,0
2.564,3.125,0,0,0,0,0
2.565,3.125,0,0,0,0,0
2.566,2.8125,0,0,0,0,0
2.567,2.5,0,0,0,0,0
2.568,2.5,0,0,0,0,0
2.569,2.5,0,0,0,0,0
2.57,2.1875,0,0,0,0,0
2.571,1.875,0,0,0,0,0
2.572,1.5625,0,0,0,0,0
2.573,1.25,0,0,0,0,0
2.574,0.9375,0,0,0,0,0
2.575,0.625,0,0,0,0,0
2.576,0.9375,0,0,0,0,0
2.577,1.25,0,0,0,0,0
2.578,0.9375,0,0,0,0,0
2.579,0.625,0,0,0,0,0
2.58,0.3125,0,0,0,0,0
2.581,0,0,0,0,0,0
2.582,-0.3125,0,0,0,0,0
2.583,-0.625,0,0,0,0,0
2.584,-0.9375,0,0,0,0,0
2.585,-1.25,0,0,0,0,0
2.586,-1.25,0,0,0,0,0
2.587,-1.25,0,0,0,0,0
2.588,-1.25,0,0,0,0,0
2.589,-1.25,0,0,0,0,0
2.59,-1.5625,0,0,0,0,0
2.591,-1.875,0,0,0,0,0
2.592,-2.1875,0,0,0,0,0
2.593,-2.5,0,0,0,0,0
2.594,-2.5,0,0,0,0,0
2.595,-2.5,0,0,0,0,0
2.596,-2.8125,0,0,0,0,0
2.597,-3.125,0,0,0,0,0
2.598,-2.5,0,0,0,0,0
2.599,-1.875,0,0,0,0,0
2.6,-2.1875,0,0,0,0,0
2.601,-2.5,0,0,0,0,0
2.602,-2.5,0,0,0,0,0
2.603,-2.5,0,0,0,0,0
2.604,-2.8125,0,0,0,0,0
2.605,-3.125,0,0,0,0,0
2.606,-3.125,0,0,0,0,0
2.607,-3.125,0,0,0,0,0
2.608,-3.125,0,0,0,0,0
2.609,-3.125,0,0,0,0,0
2.61,-2.8125,0,0,0,0,0
2.611,-2.5,0,0,0,0,0
2.612,-2.8125,0,0,0,0,0
2.613,-3.125,0,0,0,0,0
2.614,-3.125,0,0,0,0,0
2.615,-3.125,0,0,0,0,0
2.616,-3.125,0,0,0,0,0
2.617,-3.125,0,0,0,0,0
2.618,-3.4375,0,0,0,0,0
2.619,-3.75,0,0,0,0,0
2.62,-3.4375,0,0,0,0,0
2.621,-3.125,0,0,0,0,0
2.622,-3.125,0,0,0,0,0
2.623,-3.125,0,0,0,0,0
2.624,-3.125,0,0,0,0,0
2.625,-3.125,0,0,0,0,0
2.626,-3.4375,0,0,0,0,0
2.627,-3.75,0,0,0,0,0
2.628,-3.4375,0,0,0,0,0
2.629,-3.125,0,0,0,0,0
2.63,-3.4375,0,0,0,0,0
2.631,-3.75,0,0,0,0,0
2.632,-3.75,0,0,0,0,0
2.633,-3.75,0,0,0,0,0
2.634,-3.75,0,0,0,0,0
2.635,-3.75,0,0,0,0,0
2.636,-3.125,0,0,0,0,0
2.637,-2.5,0,0,0,0,0
2.638,-2.5,0,0,0,0,0
2.639,-2.5,0,0,0,0,0
2.64,-2.5,0,0,0,0,0
2.641,-2.5,0,0,0,0,0
2.642,-2.5,0,0,0,0,0
2.643,-2.5,0,0,0,0,0
2.644,-2.8125,0,0,0,0,0
2.645,-3.125,0,0,0,0,0
2.646,-3.4375,0,0,0,0,0
2.647,-3.75,0,0,0,0,0
2.648,-3.75,0,0,0,0,0
2.649,-3.75,0,0,0,0,0
2.65,-3.4375,0,0,0,0,0
2.651,-3.125,0,0,0,0,0
2.652,-3.125,0,0,0,0,0
2.653,-3.125,0,0,0,0,0
2.654,-3.125,0,0,0,0,0
2.655,-3.125,0,0,0,0,0
2.656,-2.8125,0,0,0,0,0
2.657,-2.5,0,0,0,0,0
2.658,-2.8125,0,0,0,0,0
2.659,-3.125,0,0,0,0,0
2.66,-3.125,0,0,0,0,0
2.661,-3.125,0,0,0,0,0
2.662,-3.125,0,0,0,0,0
2.663,-3.125,0,0,0,0,0
2.664,-2.8125,0,0,0,0,0
2.665,-2.5,0,0,0,0,0
2.666,-2.5,0,0,0,0,0
2.667,-2.5,0,0,0,0,0
2.668,-2.5,0,0,0,0,0
2.669,-2.5,0,0,0,0,0
2.67,-2.8125,0,0,0,0,0
2.671,-3.125,0,0,0,0,0
2.672,-2.8125,0,0,0,0,0
2.673,-2.5,0,0,0,0,0
2.674,-2.5,0,0,0,0,0
2.675,-2.5,0,0,0,0,0
2.676,-2.1875,0,0,0,0,0
2.677,-1.875,0,0,0,0,0
2.678,-1.875,0,0,0,0,0
2.679,-1.875,0,0,0,0,0
2.68,-1.875,0,0,0,0,0
2.681,-1.875,0,0,0,0,0
2.682,-1.5625,0,0,0,0,0
2.683,-1.25,0,0,0,0,0
2.684,-1.25,1,0,0,0,0
2.685,-1.25,0,0,0,0,0
2.686,-1.5625,0,0,0,0,0
2.687,-1.875,0,0,0,0,0
2.688,-1.875,0,0,0,0,0
2.689,-1.875,0,0,0,0,0
2.69,-1.5625,0,0,0,0,0
2.691,-1.25,0,0,0,0,0
2.692,-1.5625,0,0,0,0,0
2.693,-1.875,0,0,0,0,0
2.694,-1.875,0,0,0,0,0
2.695,-1.875,0,0,0,0,0
2.696,-2.1875,0,0,0,0,0
2.697,-2.5,0,0,0,0,0
2.698,-1.875,0,0,0,0,0
2.699,-1.25,0,0,0,0,0
2.7,-0.625,0,0,0,0,0
2.701,0,0,0,0,0,0
2.702,0.625,0,0,0,0,0
2.703,1.25,0,0,0,0,0
2.704,1.5625,0,0,0,0,0
2.705,1.875,0,0,0,0,0
2.706,2.1875,0,0,0,0,0
2.707,2.5,0,0,0,0,0
2.708,2.8125,0,0,0,0,0
2.709,3.125,0,0,0,0,0
2.71,3.4375,0,0,0,0,0
2.711,3.75,0,0,0,0,0
2.712,4.375,0,0,0,0,0
2.713,5,0,0,0,0,0
2.714,5.9375,0,0,0,0,0
2.715,6.875,0,0,0,0,0
2.716,7.5,0,0,0,0,0
2.717,8.125,0,0,0,0,0
2.718,8.75,0,0,0,0,0
2.719,9.375,0,0,0,0,0
2.72,9.6875,0,0,0,0,0
2.721,10,0,0,0,0,0
2.722,11.25,0,0,0,0,0
2.723,12.5,0,0,0,0,0
2.724,13.75,0,0,0,0,0
2.725,15,0,0,0,0,0
2.726,16.25,0,0,0,0,0
2.727,17.5,0,0,0,0,0
2.728,18.125,0,0,0,0,0
2.729,18.75,0,0,0,0,0
2.73,18.75,0,0,0,0,0
2.731,18.75,0,0,0,0,0
2.732,17.813,0,0,0,0,0
2.733,16.875,0,0,0,0,0
2.734,15.625,0,0,0,0,0
2.735,14.375,0,0,0,0,0
2.736,13.438,0,0,0,0,0
2.737,12.5,0,0,0,0,0
2.738,11.875,0,0,0,0,0
2.739,11.25,0,0,0,0,0
2.74,10.313,0,0,0,0,0
2.741,9.375,0,0,0,0,0
2.742,8.125,0,0,0,0,0
2.743,6.875,0,0,0,0,0
2.744,4.0625,0,0,0,0,0
2.745,1.25,0,0,0,0,0
2.746,-1.25,0,0,0,0,0
2.747,-3.75,0,0,0,0,0
2.748,-6.875,0,0,0,0,0
2.749,-10,0,0,0,0,0
2.75,-12.5,0,0,0,0,0
2.751,-15,0,0,0,0,0
2.752,-15.938,0,0,0,0,0
2.753,-16.875,0,0,0,0,0
2.754,-15.938,0,0,0,0,0
2.755,-15,0,0,0,0,0
2.756,-12.5,0,0,0,0,0
2.757,-10,0,0,0,0,0
2.758,-6.875,0,0,0,0,0
2.759,-3.75,0,0,0,0,0
2.76,0,0,0,0,0,0
2.761,3.75,0,0,0,0,0
2.762,6.25,0,0,0,0,0
2.763,8.75,0,0,0,0,0
2.764,10.625,0,0,0,0,0
2.765,12.5,0,0,0,0,0
2.766,14.063,0,0,0,0,0
2.767,15.625,0,0,0,0,0
2.768,17.188,0,0,0,0,0
2.769,18.75,0,0,0,0,0
2.77,20.313,0,0,0,0,0
2.771,21.875,0,0,0,0,0
2.772,22.813,0,0,0,0,0
2.773,23.75,0,0,0,0,0
2.774,24.688,0,0,0,0,0
2.775,25.625,0,0,0,0,0
2.776,26.563,0,0,0,0,0
2.777,27.5,0,0,0,0,0
2.778,27.813,0,0,0,0,0
2.779,28.125,0,0,0,0,0
2.78,28.125,0,0,0,0,0
2.781,28.125,0,0,0,0,0
2.782,29.063,0,0,0,0,0
2.783,30,0,0,0,0,0
2.784,30.625,0,0,0,0,0
2.785,31.25,0,0,0,0,0
2.786,31.563,0,0,0,0,0
2.787,31.875,0,0,0,0,0
2.788,32.188,0,0,0,0,0
2.789,32.5,0,0,0,0,0
2.79,32.188,0,0,0,0,0
2.791,31.875,0,0,0,0,0
2.792,32.5,0,0,0,0,0
2.793,33.125,0,0,0,0,0
2.794,33.125,0,0,0,0,0
2.795,33.125,0,0,0,0,0
2.796,33.438,0,0,0,0,0
2.797,33.75,0,0,0,0,0
2.798,33.75,0,0,0,0,0
2.799,33.75,0,0,0,0,0
2.8,33.75,0,0,0,0,0
2.801,33.75,0,1,0,0,0
2.802,33.75,0,0,0,0,0
2.803,33.75,0,0,0,0,0
2.804,34.063,0,0,0,0,0
2.805,34.375,0,0,0,0,0
2.806,33.75,0,0,0,0,0
2.807,33.125,0,0,0,0,0
2.808,32.5,0,0,0,0,0
2.809,31.875,0,0,0,0,0
2.81,31.563,0,0,0,0,0
2.811,31.25,0,0,0,0,0
2.812,30.313,0,0,0,0,0
2.813,29.375,0,0,0,0,0
2.814,28.75,0,0,0,0,0
2.815,28.125,0,0,0,0,0
2.816,27.188,0,0,0,0,0
2.817,26.25,0,0,0,0,0
2.818,25.625,0,0,0,0,0
2.819,25,0,0,0,0,0
2.82,25,0,0,0,0,0
2.821,25,0,0,0,0,0
2.822,24.063,0,0,0,0,0
2.823,23.125,0,0,0,0,0
2.824,21.875,0,0,0,0,0
2.825,20.625,0,0,0,0,0
2.826,20,0,0,0,0,0
2.827,19.375,0,0,0,0,0
2.828,18.125,0,0,0,0,0
2.829,16.875,0,0,0,0,0
2.83,16.25,0,0,0,0,0
2.831,15.625,0,0,0,0,0
2.832,15.313,0,0,0,0,0
2.833,15,0,0,0,0,0
2.834,14.688,0,0,0,0,0
2.835,14.375,0,0,0,0,0
2.836,13.438,0,0,0,0,0
2.837,12.5,0,0,0,0,0
2.838,12.188,0,0,0,0,0
2.839,11.875,0,0,0,0,0
2.84,10.313,0,0,0,0,0
2.841,8.75,0,0,0,0,0
2.842,7.5,0,0,0,0,0
2.843,6.25,0,0,0,0,0
2.844,5.625,0,0,0,0,0
2.845,5,0,0,0,0,0
2.846,4.375,0,0,0,0,0
2.847,3.75,0,0,0,0,0
2.848,3.125,0,0,0,0,0
2.849,2.5,0,0,0,0,0
2.85,1.5625,0,0,0,0,0
2.851,0.625,0,0,0,0,0
2.852,0,0,0,0,0,0
2.853,-0.625,0,0,0,0,0
2.854,-1.25,0,0,0,0,0
2.855,-1.875,0,0,0,0,0
2.856,-2.1875,0,0,0,0,0
2.857,-2.5,0,0,0,0,0
2.858,-2.5,0,0,0,0,0
2.859,-2.5,0,0,0,0,0
2.86,-2.5,0,0,0,0,0
2.861,-2.5,0,0,0,0,0
2.862,-2.5,0,0,0,0,0
2.863,-2.5,0,0,0,0,0
2.864,-2.5,0,0,0,0,0
2.865,-2.5,0,0,0,0,0
2.866,-2.1875,0,0,0,0,0
2.867,-1.875,0,0,0,0,0
2.868,-2.1875,0,0,0,0,0
2.869,-2.5,0,0,0,0,0
2.87,-2.5,0,0,0,0,0
2.871,-2.5,0,0,0,0,0
2.872,-2.8125,0,0,0,0,0
2.873,-3.125,0,0,0,0,0
2.874,-2.8125,0,0,0,0,0
2.875,-2.5,0,0,1,0,0
2.876,-2.8125,0,0,0,0,0
2.877,-3.125,0,0,0,0,0
2.878,-3.125,0,0,0,0,0
2.879,-3.125,0,0,0,0,0
2.88,-3.125,0,0,0,0,0
2.881,-3.125,0,0,0,0,0
2.882,-3.125,0,0,0,0,0
2.883,-3.125,0,0,0,0,0
2.884,-3.4375,0,0,0,0,0
2.885,-3.75,0,0,0,0,0
2.886,-3.75,0,0,0,0,0
2.887,-3.75,0,0,0,0,0
2.888,-4.0625,0,0,0,0,0
2.889,-4.375,0,0,0,0,0
2.89,-4.375,0,0,0,0,0
2.891,-4.375,0,0,0,0,0
2.892,-4.375,0,0,0,0,0
2.893,-4.375,0,0,0,0,0
2.894,-4.0625,0,0,0,0,0
2.895,-3.75,0,0,0,0,0
2.896,-3.75,0,0,0,0,0
2.897,-3.75,0,0,0,0,0
2.898,-3.75,0,0,0,0,0
2.899,-3.75,0,0,0,0,0
2.9,-3.75,0,0,0,0,0
2.901,-3.75,0,0,0,0,0
2.902,-3.4375,0,0,0,0,0
2.903,-3.125,0,0,0,0,0
2.904,-3.4375,0,0,0,0,0
2.905,-3.75,0,0,0,0,0
2.906,-4.0625,0,0,0,0,0
2.907,-4.375,0,0,0,0,0
2.908,-4.375,0,0,0,0,0
2.909,-4.375,0,0,0,0,0
2.91,-4.375,0,0,0,0,0
2.911,-4.375,0,0,0,0,0
2.912,-4.6875,0,0,0,0,0
2.913,-5,0,0,0,0,0
2.914,-5,0,0,0,0,0
2.915,-5,0,0,0,0,0
2.916,-5,0,0,0,0,0
2.917,-5,0,0,0,0,0
2.918,-5,0,0,0,0,0
2.919,-5,0,0,0,0,0
2.92,-4.6875,0,0,0,0,0
2.921,-4.375,0,0,0,0,0
2.922,-4.375,0,0,0,0,0
2.923,-4.375,0,0,0,0,0
2.924,-4.6875,0,0,0,0,0
2.925,-5,0,0,0,0,0
2.926,-5.3125,0,0,0,0,0
2.927,-5.625,0,0,0,0,0
2.928,-5.3125,0,0,0,0,0
2.929,-5,0,0,0,0,0
2.93,-5.3125,0,0,0,0,0
2.931,-5.625,0,0,0,0,0
2.932,-5.625,0,0,0,0,0
2.933,-5.625,0,0,0,0,0
2.934,-5.625,0,0,0,0,0
2.935,-5.625,0,0,0,0,0
2.936,-5.625,0,0,0,0,0
2.937,-5.625,0,0,0,0,0
2.938,-5.625,0,0,0,0,0
2.939,-5.625,0,0,0,0,0
2.94,-5.625,0,0,0,0,0
2.941,-5.625,0,0,0,0,0
2.942,-6.25,0,0,0,0,0
2.943,-6.875,0,0,0,0,0
2.944,-6.5625,0,0,0,0,0
2.945,-6.25,0,0,0,0,0
2.946,-6.25,0,0,0,0,0
2.947,-6.25,0,0,0,0,0
2.948,-6.25,0,0,0,0,0
2.949,-6.25,0,0,0,0,0
2.95,-6.5625,0,0,0,0,0
2.951,-6.875,0,0,0,0,0
2.952,-6.875,0,0,0,0,0
2.953,-6.875,0,0,0,0,0
2.954,-6.875,0,0,0,0,0
2.955,-6.875,0,0,0,0,0
2.956,-6.875,0,0,0,0,0
2.957,-6.875,0,0,0,0,0
2.958,-6.5625,0,0,0,0,0
2.959,-6.25,0,0,0,0,0
2.96,-6.5625,0,0,0,0,0
2.961,-6.875,0,0,0,0,0
2.962,-7.1875,0,0,0,0,0
2.963,-7.5,0,0,0,0,0
2.964,-7.8125,0,0,0,0,0
2.965,-8.125,0,0,0,0,0
2.966,-8.4375,0,0,0,0,0
2.967,-8.75,0,0,0,0,0
2.968,-8.75,0,0,0,0,0
2.969,-8.75,0,0,0,0,0
2.97,-9.0625,0,0,0,0,0
2.971,-9.375,0,0,0,0,0
2.972,-9.375,0,0,0,0,0
2.973,-9.375,0,0,0,0,0
2.974,-9.6875,0,0,0,0,0
2.975,-10,0,0,0,0,0
2.976,-9.6875,0,0,0,0,0
2.977,-9.375,0,0,0,0,0
2.978,-9.6875,0,0,0,0,0
2.979,-10,0,0,0,0,0
2.98,-10.313,0,0,0,0,0
2.981,-10.625,0,0,0,0,0
2.982,-10.625,0,0,0,0,0
2.983,-10.625,0,0,0,0,0
2.984,-10.625,0,0,0,0,0
2.985,-10.625,0,0,0,0,0
2.986,-10.938,0,0,0,0,0
2.987,-11.25,0,0,0,0,0
2.988,-11.563,0,0,0,0,0
2.989,-11.875,0,0,0,0,0
2.99,-11.875,0,0,0,0,0
2.991,-11.875,0,0,0,0,0
2.992,-11.875,0,0,0,0,0
2.993,-11.875,0,0,0,0,0
2.994,-11.563,0,0,0,0,0
2.995,-11.25,0,0,0,0,0
2.996,-11.875,0,0,0,0,0
2.997,-12.5,0,0,0,0,0
2.998,-12.5,0,0,0,0,0
2.999,-12.5,0,0,0,0,0
3,-13.125,0,0,0,0,0
3.001,-13.75,0,0,0,0,0
3.002,-13.438,0,0,0,0,0
3.003,-13.125,0,0,0,0,0
3.004,-13.438,0,0,0,0,0
3.005,-13.75,0,0,0,0,0
3.006,-14.063,0,0,0,0,0
3.007,-14.375,0,0,0,0,0
3.008,-14.688,0,0,0,0,0
3.009,-15,0,0,0,0,0
3.01,-15,0,0,0,0,0
3.011,-15,0,0,0,0,0
3.012,-15,0,0,0,0,0
3.013,-15,0,0,0,0,0
3.014,-15.313,0,0,0,0,0
3.015,-15.625,0,0,0,0,0
3.016,-15.313,0,0,0,0,0
3.017,-15,0,0,0,0,0
3.018,-15.313,0,0,0,0,0
3.019,-15.625,0,0,0,0,0
3.02,-15.625,0,0,0,0,0
3.021,-15.625,0,0,0,0,0
3.022,-15.313,0,0,0,0,0
3.023,-15,0,0,0,0,0
3.024,-14.688,0,0,0,0,0
3.025,-14.375,0,0,0,0,0
3.026,-14.688,0,0,0,0,0
3.027,-14.375,0,0,0,0,0
3.028,-15,0,0,0,1,0
3.029,-15.625,0,0,0,0,0
3.03,-15.625,0,0,0,0,0
3.031,-16.25,0,0,0,0,0
3.032,-15.313,0,0,0,0,0
3.033,-14.375,0,0,0,0,0
3.034,-14.375,0,0,0,0,0
3.035,-13.75,0,0,0,0,0
3.036,-14.063,0,0,0,0,0
3.037,-13.75,0,0,0,0,0
3.038,-13.438,0,0,0,0,0
3.039,-13.125,0,0,0,0,0
3.04,-12.5,0,0,0,0,0
3.041,-12.5,0,0,0,0,0
3.042,-12.5,0,0,0,0,0
3.043,-12.5,0,0,0,0,0
3.044,-11.563,0,0,0,0,0
3.045,-11.25,0,0,0,0,0
3.046,-11.25,0,0,0,0,0
3.047,-10.625,0,0,0,0,0
3.048,-10.938,0,0,0,0,0
3.049,-10.625,0,0,0,0,0
3.05,-10,0,0,0,0,0
3.051,-10,0,0,0,0,0
3.052,-10.313,0,0,0,0,0
3.053,-10,0,0,0,0,0
3.054,-9.0625,0,0,0,0,0
3.055,-8.75,0,0,0,0,0
3.056,-8.4375,0,0,0,0,0
3.057,-8.125,0,0,0,0,0
3.058,-7.8125,0,0,0,0,0
3.059,-7.5,0,0,0,0,0
3.06,-7.1875,0,0,0,0,0
3.061,-6.875,0,0,0,0,0
3.062,-6.875,0,0,0,0,0
3.063,-6.25,0,0,0,0,0
3.064,-5.3125,0,0,0,0,0
3.065,-5,0,0,0,0,0
3.066,-5.3125,0,0,0,0,0
3.067,-5,0,0,0,0,0
3.068,-4.6875,0,0,0,0,0
3.069,-3.75,0,0,0,0,0
3.07,-3.75,0,0,0,0,0
3.071,-3.125,0,0,0,0,0
3.072,-3.4375,0,0,0,0,0
3.073,-3.125,0,0,0,0,0
3.074,-3.4375,0,0,0,0,0
3.075,-3.125,0,0,0,0,0
3.076,-2.5,0,0,0,0,0
3.077,-2.5,0,0,0,0,0
3.078,-1.5625,0,0,0,0,0
3.079,-1.25,0,0,0,0,0
3.08,-1.25,0,0,0,0,0
3.081,-0.625,0,0,0,0,0
3.082,-0.625,0,0,0,0,0
3.083,-0.625,0,0,0,0,0
3.084,0,0,0,0,0,0
3.085,0,0,0,0,0,0
3.086,0.625,0,0,0,0,0
3.087,0.625,0,0,0,0,0
3.088,1.25,0,0,0,0,0
3.089,1.25,0,0,0,0,0
3.09,1.5625,0,0,0,0,0
3.091,1.25,0,0,0,0,0
3.092,1.5625,0,0,0,0,0
3.093,1.875,0,0,0,0,0
3.094,2.1875,0,0,0,0,0
3.095,3.125,0,0,0,0,0
3.096,3.125,0,0,0,0,0
3.097,3.125,0,0,0,0,0
3.098,3.125,0,0,0,0,0
3.099,3.75,0,0,0,0,0
3.1,3.75,0,0,0,0,0
3.101,3.75,0,0,0,0,0
3.102,3.75,0,0,0,0,0
3.103,3.75,0,0,0,0,0
3.104,3.4375,0,0,0,0,0
3.105,3.75,0,0,0,0,0
3.106,4.0625,0,0,0,0,0
3.107,4.375,0,0,0,0,1
3.108,4.375,0,0,0,0,0
3.109,4.375,0,0,0,0,0
3.11,4.6875,0,0,0,0,0
3.111,5,0,0,0,0,0
3.112,4.6875,0,0,0,0,0
3.113,4.375,0,0,0,0,0
3.114,3.75,0,0,0,0,0
3.115,3.125,0,0,0,0,0
3.116,2.8125,0,0,0,0,0
3.117,3.125,0,0,0,0,0
3.118,3.4375,0,0,0,0,0
3.119,3.125,0,0,0,0,0
3.12,3.125,0,0,0,0,0
3.121,3.125,0,0,0,0,0
3.122,3.125,0,0,0,0,0
3.123,3.125,0,0,0,0,0
3.124,2.8125,0,0,0,0,0
3.125,2.5,0,0,0,0,0
3.126,2.8125,0,0,0,0,0
3.127,2.5,0,0,0,0,0
3.128,2.5,0,0,0,0,0
3.129,2.5,0,0,0,0,0
3.13,2.5,0,0,0,0,0
3.131,2.5,0,0,0,0,0
3.132,2.5,0,0,0,0,0
3.133,2.5,0,0,0,0,0
3.134,2.8125,0,0,0,0,0
3.135,3.125,0,0,0,0,0
3.136,2.8125,0,0,0,0,0
3.137,3.75,0,0,0,0,0
3.138,3.75,0,0,0,0,0
3.139,3.75,0,0,0,0,0
3.14,3.4375,0,0,0,0,0
3.141,3.125,0,0,0,0,0
3.142,3.125,0,0,0,0,0
3.143,3.125,0,0,0,0,0
3.144,3.4375,0,0,0,0,0
3.145,3.75,0,0,0,0,0
3.146,3.4375,0,0,0,0,0
3.147,3.125,0,0,0,0,0
3.148,3.125,0,0,0,0,0
3.149,3.125,0,0,0,0,0
3.15,3.125,0,0,0,0,0
3.151,3.125,0,0,0,0,0
3.152,2.1875,0,0,0,0,0
3.153,1.875,0,0,0,0,0
3.154,1.875,0,0,0,0,0
3.155,1.875,0,0,0,0,0
3.156,1.875,0,0,0,0,0
3.157,1.875,0,0,0,0,0
3.158,2.1875,0,0,0,0,0
3.159,2.5,0,0,0,0,0
3.16,2.1875,0,0,0,0,0
3.161,1.875,0,0,0,0,0
3.162,1.875,0,0,0,0,0
3.163,1.875,0,0,0,0,0
3.164,2.1875,0,0,0,0,0
3.165,2.5,0,0,0,0,0
3.166,2.8125,0,0,0,0,0
3.167,3.125,0,0,0,0,0
3.168,3.125,0,0,0,0,0
3.169,3.125,0,0,0,0,0
3.17,3.125,0,0,0,0,0
3.171,3.125,0,0,0,0,0
3.172,2.8125,0,0,0,0,0
3.173,2.5,0,0,0,0,0
3.174,2.5,0,0,0,0,0
3.175,2.5,0,0,0,0,0
3.176,2.5,0,0,0,0,0
3.177,1.875,0,0,0,0,0
3.178,1.875,0,0,0,0,0
3.179,1.25,0,0,0,0,0
3.18,1.5625,0,0,0,0,0
3.181,1.875,0,0,0,0,0
3.182,1.875,0,0,0,0,0
3.183,1.875,0,0,0,0,0
3.184,1.875,0,0,0,0,0
3.185,1.875,0,0,0,0,0
3.186,1.25,0,0,0,0,0
3.187,1.875,0,0,0,0,0
3.188,1.875,0,0,0,0,0
3.189,1.25,0,0,0,0,0
3.19,1.875,0,0,0,0,0
3.191,1.875,0,0,0,0,0
3.192,2.1875,0,0,0,0,0
3.193,2.5,0,0,0,0,0
3.194,2.8125,0,0,0,0,0
3.195,3.125,0,0,0,0,0
3.196,3.4375,0,0,0,0,0
3.197,3.75,0,0,0,0,0
3.198,2.5,0,0,0,0,0
3.199,1.875,0,0,0,0,0
3.2,2.1875,0,0,0,0,0
3.201,2.5,0,0,0,0,0
3.202,2.1875,0,0,0,0,0
3.203,1.875,0,0,0,0,0
3.204,1.875,0,0,0,0,0
3.205,1.875,0,0,0,0,0
3.206,1.875,0,0,0,0,0
3.207,2.5,0,0,0,0,0
3.208,2.8125,0,0,0,0,0
3.209,2.5,0,0,0,0,0
3.21,2.5,0,0,0,0,0
3.211,2.5,0,0,0,0,0
3.212,2.5,0,0,0,0,0
3.213,1.875,0,0,0,0,0
3.214,2.5,0,0,0,0,0
3.215,2.5,0,0,0,0,0
3.216,2.8125,0,0,0,0,0
3.217,2.5,0,0,0,0,0
3.218,1.875,0,0,0,0,0
3.219,1.25,0,0,0,0,0
3.22,0.9375,0,0,0,0,0
3.221,1.25,0,0,0,0,0
3.222,0.625,0,0,0,0,0
3.223,1.25,0,0,0,0,0
3.224,1.875,0,0,0,0,0
3.225,1.875,0,0,0,0,0
3.226,1.5625,0,0,0,0,0
3.227,1.25,0,0,0,0,0
3.228,1.25,0,0,0,0,0
3.229,1.25,0,0,0,0,0
3.23,1.25,0,0,0,0,0
3.231,1.25,0,0,0,0,0
3.232,1.25,0,0,0,0,0
3.233,1.25,0,0,0,0,0
3.234,1.25,0,0,0,0,0
3.235,1.25,0,0,0,0,0
3.236,0.9375,0,0,0,0,0
3.237,0.625,0,0,0,0,0
3.238,0.9375,0,0,0,0,0
3.239,1.25,0,0,0,0,0
3.24,1.25,0,0,0,0,0
3.241,1.25,0,0,0,0,0
3.242,1.25,0,0,0,0,0
3.243,1.25,0,0,0,0,0
3.244,0.625,0,0,0,0,0
3.245,0.625,0,0,0,0,0
3.246,0.9375,0,0,0,0,0
3.247,1.875,0,0,0,0,0
3.248,1.875,0,0,0,0,0
3.249,1.875,0,0,0,0,0
3.25,1.875,0,0,0,0,0
3.251,1.875,0,0,0,0,0
3.252,1.5625,0,0,0,0,0
3.253,1.25,0,0,0,0,0
3.254,1.25,0,0,0,0,0
3.255,1.25,0,0,0,0,0
3.256,0.625,0,0,0,0,0
3.257,0.625,0,0,0,0,0
3.258,1.5625,0,0,0,0,0
3.259,1.875,0,0,0,0,0
3.26,1.25,0,0,0,0,0
3.261,1.25,0,0,0,0,0
3.262,1.5625,0,0,0,0,0
3.263,1.875,0,0,0,0,0
3.264,1.875,0,0,0,0,0
3.265,1.875,0,0,0,0,0
3.266,1.5625,0,0,0,0,0
3.267,1.25,0,0,0,0,0
3.268,0.9375,0,0,0,0,0
3.269,0.625,0,0,0,0,0
3.27,-0.3125,0,0,0,0,0
3.271,0,0,0,0,0,0
3.272,-0.3125,0,0,0,0,0
3.273,-0.625,0,0,0,0,0
3.274,-0.3125,0,0,0,0,0
3.275,0,0,0,0,0,0
3.276,-0.3125,0,0,0,0,0
3.277,-0.625,0,0,0,0,0
3.278,0,0,0,0,0,0
3.279,0.625,0,0,0,0,0
3.28,0.625,0,0,0,0,0
3.281,0.625,0,0,0,0,0
3.282,0.625,0,0,0,0,0
3.283,0.625,0,0,0,0,0
3.284,0.3125,0,0,0,0,0
3.285,0,0,0,0,0,0
3.286,0,0,0,0,0,0
3.287,0,0,0,0,0,0
3.288,0,0,0,0,0,0
3.289,0,0,0,0,0,0
3.29,0,0,0,0,0,0
3.291,-0.625,0,0,0,0,0
3.292,-0.3125,0,0,0,0,0
3.293,-0.625,0,0,0,0,0
3.294,-0.625,0,0,0,0,0
3.295,-0.625,0,0,0,0,0
3.296,-0.3125,0,0,0,0,0
3.297,0,0,0,0,0,0
3.298,0,0,0,0,0,0
3.299,-0.625,0,0,0,0,0
3.3,-0.9375,0,0,0,0,0
3.301,-0.625,0,0,0,0,0
3.302,-0.3125,0,0,0,0,0
3.303,0,0,0,0,0,0
3.304,-0.3125,0,0,0,0,0
3.305,-0.625,0,0,0,0,0
3.306,-0.9375,0,0,0,0,0
3.307,-0.625,0,0,0,0,0
3.308,-0.625,0,0,0,0,0
3.309,-0.625,0,0,0,0,0
3.31,0,0,0,0,0,0
3.311,1.25,0,0,0,0,0
3.312,0.9375,0,0,0,0,0
3.313,0.625,0,0,0,0,0
3.314,0.625,0,0,0,0,0
3.315,1.25,0,0,0,0,0
3.316,1.5625,0,0,0,0,0
3.317,2.5,0,0,0,0,0
3.318,2.8125,0,0,0,0,0
3.319,3.125,0,0,0,0,0
3.32,2.5,0,0,0,0,0
3.321,2.5,0,0,0,0,0
3.322,2.8125,0,0,0,0,0
3.323,3.125,0,0,0,0,0
3.324,2.5,0,0,0,0,0
3.325,2.5,0,0,0,0,0
3.326,2.8125,0,0,0,0,0
3.327,3.125,0,0,0,0,0
3.328,3.4375,0,0,0,0,0
3.329,3.75,0,0,0,0,0
3.33,4.0625,0,0,0,0,0
3.331,4.375,0,0,0,0,0
3.332,4.0625,0,0,0,0,0
3.333,3.75,0,0,0,0,0
3.334,3.4375,0,0,0,0,0
3.335,3.75,0,0,0,0,0
3.336,3.75,0,0,0,0,0
3.337,3.125,0,0,0,0,0
3.338,3.4375,0,0,0,0,0
3.339,3.125,0,0,0,0,0
3.34,2.5,0,0,0,0,0
3.341,3.125,0,0,0,0,0
3.342,2.8125,0,0,0,0,0
3.343,3.125,0,0,0,0,0
3.344,4.375,0,0,0,0,0
3.345,5,0,0,0,0,0
3.346,5,0,0,0,0,0
3.347,5,0,0,0,0,0
3.348,5,0,0,0,0,0
3.349,5,0,0,0,0,0
3.35,4.6875,0,0,0,0,0
3.351,4.375,0,0,0,0,0
3.352,4.6875,0,0,0,0,0
3.353,4.375,0,0,0,0,0
3.354,4.0625,0,0,0,0,0
3.355,4.375,0,0,0,0,0
3.356,4.6875,0,0,0,0,0
3.357,4.375,0,0,0,0,0
3.358,4.375,0,0,0,0,0
3.359,3.75,0,0,0,0,0
3.36,3.75,0,0,0,0,0
3.361,3.125,0,0,0,0,0
3.362,3.4375,0,0,0,0,0
3.363,3.75,0,0,0,0,0
3.364,3.125,0,0,0,0,0
3.365,2.5,0,0,0,0,0
3.366,1.5625,0,0,0,0,0
3.367,1.25,0,0,0,0,0
3.368,0.625,0,0,0,0,0
3.369,0.625,0,0,0,0,0
3.37,-0.3125,0,0,0,0,0
3.371,-0.625,0,0,0,0,0
3.372,-0.3125,0,0,0,0,0
3.373,-0.625,0,0,0,0,0
3.374,-0.9375,0,0,0,0,0
3.375,-1.25,0,0,0,0,0
3.376,-1.5625,0,0,0,0,0
3.377,-1.875,0,0,0,0,0
3.378,-1.875,0,0,0,0,0
3.379,-1.875,0,0,0,0,0
3.38,-2.1875,0,0,0,0,0
3.381,-1.875,0,0,0,0,0
3.382,-2.1875,0,0,0,0,0
3.383,-2.5,0,0,0,0,0
3.384,-2.8125,0,0,0,0,0
3.385,-3.125,0,0,0,0,0
3.386,-3.125,0,0,0,0,0
3.387,-3.125,0,0,0,0,0
3.388,-2.8125,0,0,0,0,0
3.389,-3.125,0,0,0,0,0
3.39,-2.5,0,0,0,0,0
3.391,-2.5,0,0,0,0,0
3.392,-2.1875,0,0,0,0,0
3.393,-1.875,0,0,0,0,0
3.394,-2.5,0,0,0,0,0
3.395,-2.5,0,0,0,0,0
3.396,-2.5,0,0,0,0,0
3.397,-3.125,0,0,0,0,0
3.398,-2.8125,0,0,0,0,0
3.399,-2.5,0,0,0,0,0
3.4,-2.5,0,0,0,0,0
3.401,-1.875,0,0,0,0,0
3.402,-1.5625,0,0,0,0,0
3.403,-1.875,0,0,0,0,0
3.404,-1.875,0,0,0,0,0
3.405,-1.875,0,0,0,0,0
3.406,-2.1875,0,0,0,0,0
3.407,-1.875,0,0,0,0,0
3.408,-1.875,0,0,0,0,0
3.409,-1.875,0,0,0,0,0
3.41,-1.5625,0,0,0,0,0
3.411,-1.875,0,0,0,0,0
3.412,-2.1875,0,0,0,0,0
3.413,-2.5,0,0,0,0,0
3.414,-2.1875,0,0,0,0,0
3.415,-1.875,0,0,0,0,0
3.416,-2.1875,0,0,0,0,0
3.417,-2.5,0,0,0,0,0
3.418,-2.1875,0,0,0,0,0
3.419,-2.5,0,0,0,0,0
3.42,-2.1875,0,0,0,0,0
3.421,-1.875,0,0,0,0,0
3.422,-1.875,0,0,0,0,0
3.423,-1.875,0,0,0,0,0
3.424,-1.5625,0,0,0,0,0
3.425,-1.25,0,0,0,0,0
3.426,-1.875,0,0,0,0,0
3.427,-1.875,0,0,0,0,0
3.428,-1.5625,0,0,0,0,0
3.429,-1.25,0,0,0,0,0
3.43,-1.875,0,0,0,0,0
3.431,-1.875,0,0,0,0,0
3.432,-0.9375,0,0,0,0,0
3.433,-1.25,0,0,0,0,0
3.434,-0.9375,0,0,0,0,0
3.435,-0.625,0,0,0,0,0
3.436,-1.25,0,0,0,0,0
3.437,-1.25,0,0,0,0,0
3.438,-1.25,0,0,0,0,0
3.439,-1.25,0,0,0,0,0
3.44,-1.25,0,0,0,0,0
3.441,-1.875,0,0,0,0,0
3.442,-1.875,0,0,0,0,0
3.443,-1.875,0,0,0,0,0
3.444,-1.875,0,0,0,0,0
3.445,-1.25,0,0,0,0,0
3.446,-1.5625,0,0,0,0,0
3.447,-1.875,0,0,0,0,0
3.448,-1.875,0,0,0,0,0
3.449,-1.875,0,0,0,0,0
3.45,-1.875,0,0,0,0,0
3.451,-1.875,0,0,0,0,0
3.452,-1.5625,0,0,0,0,0
3.453,-1.25,0,0,0,0,0
3.454,-1.5625,0,0,0,0,0
3.455,-1.875,0,0,0,0,0
3.456,-1.25,0,0,0,0,0
3.457,-0.625,0,0,0,0,0
3.458,-1.5625,0,0,0,0,0
3.459,-1.875,0,0,0,0,0
3.46,-1.5625,0,0,0,0,0
3.461,-1.25,0,0,0,0,0
3.462,-1.875,0,0,0,0,0
3.463,-1.875,0,0,0,0,0
3.464,-1.5625,0,0,0,0,0
3.465,-1.875,0,0,0,0,0
3.466,-1.875,0,0,0,0,0
3.467,-1.875,0,0,0,0,0
3.468,-1.875,0,0,0,0,0
3.469,-1.875,0,0,0,0,0
3.47,-1.875,0,0,0,0,0
3.471,-1.875,0,0,0,0,0
3.472,-2.1875,0,0,0,0,0
3.473,-2.5,0,0,0,0,0
3.474,-2.1875,0,0,0,0,0
3.475,-1.875,0,0,0,0,0
3.476,-1.875,0,0,0,0,0
3.477,-1.875,1,0,0,0,0
3.478,-2.1875,0,0,0,0,0
3.479,-1.875,0,0,0,0,0
3.48,-1.875,0,0,0,0,0
3.481,-1.875,0,0,0,0,0
3.482,-1.5625,0,0,0,0,0
3.483,-1.25,0,0,0,0,0
3.484,-1.5625,0,0,0,0,0
3.485,-1.25,0,0,0,0,0
3.486,-0.3125,0,0,0,0,0
3.487,0,0,0,0,0,0
3.488,0.3125,0,0,0,0,0
3.489,0.625,0,0,0,0,0
3.49,1.25,0,0,0,0,0
3.491,1.25,0,0,0,0,0
3.492,2.1875,0,0,0,0,0
3.493,2.5,0,0,0,0,0
3.494,2.5,0,0,0,0,0
3.495,3.75,0,0,0,0,0
3.496,4.6875,0,0,0,0,0
3.497,5.625,0,0,0,0,0
3.498,6.25,0,0,0,0,0
3.499,6.25,0,0,0,0,0
3.5,6.25,0,0,0,0,0
3.501,6.25,0,0,0,0,0
3.502,7.5,0,0,0,0,0
3.503,8.125,0,0,0,0,0
3.504,8.75,0,0,0,0,0
3.505,8.75,0,0,0,0,0
3.506,10,0,0,0,0,0
3.507,10.625,0,0,0,0,0
3.508,12.188,0,0,0,0,0
3.509,13.125,0,0,0,0,0
3.51,13.438,0,0,0,0,0
3.511,14.375,0,0,0,0,0
3.512,15.313,0,0,0,0,0
3.513,16.25,0,0,0,0,0
3.514,17.188,0,0,0,0,0
3.515,18.75,0,0,0,0,0
3.516,19.063,0,0,0,0,0
3.517,18.75,0,0,0,0,0
3.518,19.063,0,0,0,0,0
3.519,19.375,0,0,0,0,0
3.52,18.125,0,0,0,0,0
3.521,16.875,0,0,0,0,0
3.522,15.625,0,0,0,0,0
3.523,15,0,0,0,0,0
3.524,15,0,0,0,0,0
3.525,13.75,0,0,0,0,0
3.526,12.188,0,0,0,0,0
3.527,11.25,0,0,0,0,0
3.528,10.938,0,0,0,0,0
3.529,10,0,0,0,0,0
3.53,7.8125,0,0,0,0,0
3.531,5,0,0,0,0,0
3.532,2.1875,0,0,0,0,0
3.533,-0.625,0,0,0,0,0
3.534,-4.0625,0,0,0,0,0
3.535,-7.5,0,0,0,0,0
3.536,-10.625,0,0,0,0,0
3.537,-13.125,0,0,0,0,0
3.538,-15.625,0,0,0,0,0
3.539,-17.5,0,0,0,0,0
3.54,-17.5,0,0,0,0,0
3.541,-17.5,0,0,0,0,0
3.542,-16.25,0,0,0,0,0
3.543,-13.75,0,0,0,0,0
3.544,-10.938,0,0,0,0,0
3.545,-7.5,0,0,0,0,0
3.546,-4.375,0,0,0,0,0
3.547,-0.625,0,0,0,0,0
3.548,2.8125,0,0,0,0,0
3.549,5.625,0,0,0,0,0
3.55,7.1875,0,0,0,0,0
3.551,8.75,0,0,0,0,0
3.552,10.625,0,0,0,0,0
3.553,11.875,0,0,0,0,0
3.554,13.125,0,0,0,0,0
3.555,15,0,0,0,0,0
3.556,16.875,0,0,0,0,0
3.557,18.75,0,0,0,0,0
3.558,20,0,0,0,0,0
3.559,21.875,0,0,0,0,0
3.56,23.438,0,0,0,0,0
3.561,25,0,0,0,0,0
3.562,25,0,0,0,0,0
3.563,26.25,0,0,0,0,0
3.564,26.875,0,0,0,0,0
3.565,26.875,0,0,0,0,0
3.566,26.563,0,0,0,0,0
3.567,26.875,0,0,0,0,0
3.568,26.563,0,0,0,0,0
3.569,26.875,0,0,0,0,0
3.57,27.5,0,0,0,0,0
3.571,28.125,0,0,0,0,0
3.572,28.438,0,0,0,0,0
3.573,29.375,0,0,0,0,0
3.574,29.688,0,0,0,0,0
3.575,30.625,0,0,0,0,0
3.576,30.313,0,0,0,0,0
3.577,31.25,0,0,0,0,0
3.578,31.25,0,0,0,0,0
3.579,31.875,0,0,0,0,0
3.58,32.188,0,0,0,0,0
3.581,31.875,0,0,0,0,0
3.582,32.5,0,0,0,0,0
3.583,32.5,0,1,0,0,0
3.584,33.125,0,0,0,0,0
3.585,33.125,0,0,0,0,0
3.586,32.5,0,0,0,0,0
3.587,31.875,0,0,0,0,0
3.588,31.875,0,0,0,0,0
3.589,31.875,0,0,0,0,0
3.59,31.25,0,0,0,0,0
3.591,31.25,0,0,0,0,0
3.592,31.875,0,0,0,0,0
3.593,31.875,0,0,0,0,0
3.594,31.25,0,0,0,0,0
3.595,30.625,0,0,0,0,0
3.596,30.625,0,0,0,0,0
3.597,30,0,0,0,0,0
3.598,29.688,0,0,0,0,0
3.599,28.75,0,0,0,0,0
3.6,28.125,0,0,0,0,0
3.601,27.5,0,0,0,0,0
3.602,27.188,0,0,0,0,0
3.603,26.875,0,0,0,0,0
3.604,25.625,0,0,0,0,0
3.605,24.375,0,0,0,0,0
3.606,23.438,0,0,0,0,0
3.607,22.5,0,0,0,0,0
3.608,22.5,0,0,0,0,0
3.609,21.25,0,0,0,0,0
3.61,19.688,0,0,0,0,0
3.611,18.125,0,0,0,0,0
3.612,17.188,0,0,0,0,0
3.613,16.25,0,0,0,0,0
3.614,15.625,0,0,0,0,0
3.615,15,0,0,0,0,0
3.616,14.375,0,0,0,0,0
3.617,13.75,0,0,0,0,0
3.618,12.813,0,0,0,0,0
3.619,11.875,0,0,0,0,0
3.62,11.563,0,0,0,0,0
3.621,11.875,0,0,0,0,0
3.622,10.625,0,0,0,0,0
3.623,10,0,0,0,0,0
3.624,9.6875,0,0,0,0,0
3.625,9.375,0,0,0,0,0
3.626,8.75,0,0,0,0,0
3.627,8.125,0,0,0,0,0
3.628,6.5625,0,0,0,0,0
3.629,5,0,0,0,0,0
3.63,3.4375,0,0,0,0,0
3.631,2.5,0,0,0,0,0
3.632,1.5625,0,0,0,0,0
3.633,0.625,0,0,0,0,0
3.634,-0.3125,0,0,0,0,0
3.635,-0.625,0,0,0,0,0
3.636,-1.25,0,0,0,0,0
3.637,-1.875,0,0,0,0,0
3.638,-2.8125,0,0,0,0,0
3.639,-3.125,0,0,0,0,0
3.64,-3.75,0,0,0,0,0
3.641,-3.75,0,0,0,0,0
3.642,-4.375,0,0,0,0,0
3.643,-4.375,0,0,0,0,0
3.644,-4.375,0,0,0,0,0
3.645,-4.375,0,0,0,0,0
3.646,-4.0625,0,0,0,0,0
3.647,-4.375,0,0,0,0,0
3.648,-4.0625,0,0,0,0,0
3.649,-3.75,0,0,0,0,0
3.65,-4.0625,0,0,0,0,0
3.651,-4.375,0,0,0,0,0
3.652,-4.6875,0,0,0,0,0
3.653,-3.75,0,0,0,0,0
3.654,-3.75,0,0,0,0,0
3.655,-4.375,0,0,0,0,0
3.656,-4.6875,0,0,0,0,0
3.657,-5,0,0,0,0,0
3.658,-5,0,0,0,0,0
3.659,-5,0,0,0,0,0
3.66,-5.625,0,0,0,0,0
3.661,-5.625,0,0,0,0,0
3.662,-5.625,0,0,1,0,0
3.663,-5.625,0,0,0,0,0
3.664,-5.9375,0,0,0,0,0
3.665,-6.25,0,0,0,0,0
3.666,-6.25,0,0,0,0,0
3.667,-6.25,0,0,0,0,0
3.668,-6.875,0,0,0,0,0
3.669,-6.875,0,0,0,0,0
3.67,-6.5625,0,0,0,0,0
3.671,-5.625,0,0,0,0,0
3.672,-5.625,0,0,0,0,0
3.673,-5.625,0,0,0,0,0
3.674,-5.625,0,0,0,0,0
3.675,-5.625,0,0,0,0,0
3.676,-6.25,0,0,0,0,0
3.677,-5.625,0,0,0,0,0
3.678,-5.625,0,0,0,0,0
3.679,-6.25,0,0,0,0,0
3.68,-6.25,0,0,0,0,0
3.681,-6.25,0,0,0,0,0
3.682,-6.25,0,0,0,0,0
3.683,-6.25,0,0,0,0,0
3.684,-6.25,0,0,0,0,0
3.685,-6.875,0,0,0,0,0
3.686,-6.25,0,0,0,0,0
3.687,-6.25,0,0,0,0,0
3.688,-6.5625,0,0,0,0,0
3.689,-6.25,0,0,0,0,0
3.69,-5.9375,0,0,0,0,0
3.691,-5.625,0,0,0,0,0
3.692,-5.9375,0,0,0,0,0
3.693,-6.25,0,0,0,0,0
3.694,-6.25,0,0,0,0,0
3.695,-6.25,0,0,0,0,0
3.696,-6.5625,0,0,0,0,0
3.697,-6.875,0,0,0,0,0
3.698,-7.1875,0,0,0,0,0
3.699,-7.5,0,0,0,0,0
3.7,-6.875,0,0,0,0,0
3.701,-6.25,0,0,0,0,0
3.702,-6.25,0,0,0,0,0
3.703,-6.25,0,0,0,0,0
3.704,-5.9375,0,0,0,0,0
3.705,-5.625,0,0,0,0,0
3.706,-5.9375,0,0,0,0,0
3.707,-6.25,0,0,0,0,0
3.708,-6.875,0,0,0,0,0
3.709,-6.875,0,0,0,0,0
3.71,-7.5,0,0,0,0,0
3.711,-7.5,0,0,0,0,0
3.712,-7.8125,0,0,0,0,0
3.713,-7.5,0,0,0,0,0
3.714,-7.5,0,0,0,0,0
3.715,-7.5,0,0,0,0,0
3.716,-7.8125,0,0,0,0,0
3.717,-7.5,0,0,0,0,0
3.718,-7.5,0,0,0,0,0
3.719,-7.5,0,0,0,0,0
3.72,-7.5,0,0,0,0,0
3.721,-7.5,0,0,0,0,0
3.722,-7.8125,0,0,0,0,0
3.723,-7.5,0,0,0,0,0
3.724,-7.8125,0,0,0,0,0
3.725,-8.125,0,0,0,0,0
3.726,-8.4375,0,0,0,0,0
3.727,-8.75,0,0,0,0,0
3.728,-9.0625,0,0,0,0,0
3.729,-9.375,0,0,0,0,0
3.73,-9.0625,0,0,0,0,0
3.731,-8.75,0,0,0,0,0
3.732,-8.75,0,0,0,0,0
3.733,-9.375,0,0,0,0,0
3.734,-9.375,0,0,0,0,0
3.735,-9.375,0,0,0,0,0
3.736,-9.375,0,0,0,0,0
3.737,-9.375,0,0,0,0,0
3.738,-9.6875,0,0,0,0,0
3.739,-10.625,0,0,0,0,0
3.74,-10.625,0,0,0,0,0
3.741,-10.625,0,0,0,0,0
3.742,-10.938,0,0,0,0,0
3.743,-11.25,0,0,0,0,0
3.744,-10.938,0,0,0,0,0
3.745,-11.25,0,0,0,0,0
3.746,-11.25,0,0,0,0,0
3.747,-11.875,0,0,0,0,0
3.748,-10.938,0,0,0,0,0
3.749,-11.25,0,0,0,0,0
3.75,-10.938,0,0,0,0,0
3.751,-10.625,0,0,0,0,0
3.752,-11.25,0,0,0,0,0
3.753,-11.25,0,0,0,0,0
3.754,-11.25,0,0,0,0,0
3.755,-11.25,0,0,0,0,0
3.756,-11.25,0,0,0,0,0
3.757,-11.25,0,0,0,0,0
3.758,-11.25,0,0,0,0,0
3.759,-11.875,0,0,0,0,0
3.76,-12.813,0,0,0,0,0
3.761,-13.75,0,0,0,0,0
3.762,-13.438,0,0,0,0,0
3.763,-13.75,0,0,0,0,0
3.764,-13.75,0,0,0,0,0
3.765,-14.375,0,0,0,0,0
3.766,-14.375,0,0,0,0,0
3.767,-14.375,0,0,0,0,0
3.768,-15,0,0,0,0,0
3.769,-15,0,0,0,0,0
3.77,-14.688,0,0,0,0,0
3.771,-14.375,0,0,0,0,0
3.772,-14.375,0,0,0,0,0
3.773,-15,0,0,0,0,0
3.774,-14.688,0,0,0,0,0
3.775,-14.375,0,0,0,0,0
3.776,-14.688,0,0,0,0,0
3.777,-14.375,0,0,0,0,0
3.778,-14.375,0,0,0,0,0
3.779,-15,0,0,0,0,0
3.78,-15.313,0,0,0,0,0
3.781,-15.625,0,0,0,0,0
3.782,-15.313,0,0,0,0,0
3.783,-15.625,0,0,0,0,0
3.784,-15.938,0,0,0,0,0
3.785,-16.25,0,0,0,0,0
3.786,-16.563,0,0,0,0,0
3.787,-16.875,0,0,0,0,0
3.788,-16.875,0,0,0,0,0
3.789,-16.875,0,0,0,0,0
3.79,-16.875,0,0,0,0,0
3.791,-17.5,0,0,0,0,0
3.792,-17.5,0,0,0,0,0
3.793,-17.5,0,0,0,0,0
3.794,-17.5,0,0,0,0,0
3.795,-17.5,0,0,0,0,0
3.796,-17.5,0,0,0,0,0
3.797,-17.5,0,0,0,0,0
3.798,-17.5,0,0,0,0,0
3.799,-18.125,0,0,0,0,0
3.8,-18.125,0,0,0,1,0
3.801,-18.125,0,0,0,0,0
3.802,-17.813,0,0,0,0,0
3.803,-17.5,0,0,0,0,0
3.804,-17.813,0,0,0,0,0
3.805,-18.125,0,0,0,0,0
3.806,-17.188,0,0,0,0,0
3.807,-16.875,0,0,0,0,0
3.808,-16.875,0,0,0,0,0
3.809,-16.875,0,0,0,0,0
3.81,-17.188,0,0,0,0,0
3.811,-16.875,0,0,0,0,0
3.812,-17.188,0,0,0,0,0
3.813,-16.875,0,0,0,0,0
3.814,-16.563,0,0,0,0,0
3.815,-16.25,0,0,0,0,0
3.816,-16.563,0,0,0,0,0
3.817,-16.25,0,0,0,0,0
3.818,-16.25,0,0,0,0,0
3.819,-16.25,0,0,0,0,0
3.82,-16.563,0,0,0,0,0
3.821,-16.875,0,0,0,0,0
3.822,-15.938,0,0,0,0,0
3.823,-15.625,0,0,0,0,0
3.824,-15.938,0,0,0,0,0
3.825,-16.25,0,0,0,0,0
3.826,-16.25,0,0,0,0,0
3.827,-15.625,0,0,0,0,0
3.828,-15,0,0,0,0,0
3.829,-15,0,0,0,0,0
3.83,-14.688,0,0,0,0,0
3.831,-15,0,0,0,0,0
3.832,-14.688,0,0,0,0,0
3.833,-14.375,0,0,0,0,0
3.834,-13.75,0,0,0,0,0
3.835,-13.125,0,0,0,0,0
3.836,-13.125,0,0,0,0,0
3.837,-12.5,0,0,0,0,0
3.838,-12.813,0,0,0,0,0
3.839,-13.125,0,0,0,0,0
3.84,-12.5,0,0,0,0,0
3.841,-11.875,0,0,0,0,0
3.842,-11.563,0,0,0,0,0
3.843,-10.625,0,0,0,0,0
3.844,-10,0,0,0,0,0
3.845,-10,0,0,0,0,0
3.846,-9.375,0,0,0,0,0
3.847,-9.375,0,0,0,0,0
3.848,-8.75,0,0,0,0,0
3.849,-8.125,0,0,0,0,0
3.85,-7.5,0,0,0,0,0
3.851,-6.875,0,0,0,0,0
3.852,-6.5625,0,0,0,0,0
3.853,-6.875,0,0,0,0,0
3.854,-6.25,0,0,0,0,0
3.855,-6.25,0,0,0,0,0
3.856,-5.625,0,0,0,0,0
3.857,-5,0,0,0,0,0
3.858,-5,0,0,0,0,0
3.859,-5,0,0,0,0,0
3.86,-4.375,0,0,0,0,0
3.861,-4.375,0,0,0,0,0
3.862,-3.75,0,0,0,0,0
3.863,-3.75,0,0,0,0,0
3.864,-3.125,0,0,0,0,0
3.865,-3.125,0,0,0,0,0
3.866,-2.5,0,0,0,0,0
3.867,-2.5,0,0,0,0,0
3.868,-1.875,0,0,0,0,0
3.869,-1.875,0,0,0,0,0
3.87,-1.25,0,0,0,0,0
3.871,-1.25,0,0,0,0,0
3.872,-1.5625,0,0,0,0,0
3.873,-1.25,0,0,0,0,0
3.874,-1.25,0,0,0,0,0
3.875,-0.625,0,0,0,0,0
3.876,-0.625,0,0,0,0,0
3.877,0,0,0,0,0,0
3.878,0.3125,0,0,0,0,0
3.879,0.625,0,0,0,0,0
3.88,0.625,0,0,0,0,0
3.881,0.625,0,0,0,0,0
3.882,0.625,0,0,0,0,0
3.883,0.625,0,0,0,0,0
3.884,1.25,0,0,0,0,0
3.885,1.25,0,0,0,0,0
3.886,1.5625,0,0,0,0,0
3.887,1.875,0,0,0,0,0
3.888,1.875,0,0,0,0,0
3.889,1.875,0,0,0,0,0
3.89,2.8125,0,0,0,0,0
3.891,2.5,0,0,0,0,0
3.892,2.5,0,0,0,0,0
3.893,3.125,0,0,0,0,0
3.894,2.8125,0,0,0,0,0
3.895,2.5,0,0,0,0,0
3.896,2.8125,0,0,0,0,0
3.897,3.125,0,0,0,0,0
3.898,3.125,0,0,0,0,0
3.899,3.125,0,0,0,0,0
3.9,3.4375,0,0,0,0,0
3.901,3.75,0,0,0,0,0
3.902,3.75,0,0,0,0,0
3.903,3.75,0,0,0,0,0
3.904,4.375,0,0,0,0,0
3.905,4.375,0,0,0,0,0
3.906,4.375,0,0,0,0,0
3.907,5,0,0,0,0,0
3.908,4.0625,0,0,0,0,0
3.909,3.75,0,0,0,0,0
3.91,4.375,0,0,0,0,0
3.911,4.375,0,0,0,0,1
3.912,4.0625,0,0,0,0,0
3.913,4.375,0,0,0,0,0
3.914,4.6875,0,0,0,0,0
3.915,5,0,0,0,0,0
3.916,4.6875,0,0,0,0,0
3.917,4.375,0,0,0,0,0
3.918,4.375,0,0,0,0,0
3.919,3.75,0,0,0,0,0
3.92,4.6875,0,0,0,0,0
3.921,5,0,0,0,0,0
3.922,4.0625,0,0,0,0,0
3.923,3.75,0,0,0,0,0
3.924,4.375,0,0,0,0,0
3.925,4.375,0,0,0,0,0
3.926,4.375,0,0,0,0,0
3.927,3.75,0,0,0,0,0
3.928,3.75,0,0,0,0,0
3.929,3.75,0,0,0,0,0
3.93,3.75,0,0,0,0,0
3.931,3.75,0,0,0,0,0
3.932,3.75,0,0,0,0,0
3.933,3.75,0,0,0,0,0
3.934,3.75,0,0,0,0,0
3.935,3.75,0,0,0,0,0
3.936,3.4375,0,0,0,0,0
3.937,3.125,0,0,0,0,0
3.938,3.125,0,0,0,0,0
3.939,3.125,0,0,0,0,0
3.94,3.125,0,0,0,0,0
3.941,3.125,0,0,0,0,0
3.942,3.125,0,0,0,0,0
3.943,3.125,0,0,0,0,0
3.944,3.4375,0,0,0,0,0
3.945,3.125,0,0,0,0,0
3.946,3.4375,0,0,0,0,0
3.947,3.75,0,0,0,0,0
3.948,3.75,0,0,0,0,0
3.949,3.75,0,0,0,0,0
3.95,4.0625,0,0,0,0,0
3.951,3.125,0,0,0,0,0
3.952,3.75,0,0,0,0,0
3.953,3.75,0,0,0,0,0
3.954,4.0625,0,0,0,0,0
3.955,4.375,0,0,0,0,0
3.956,3.75,0,0,0,0,0
3.957,4.375,0,0,0,0,0
3.958,4.0625,0,0,0,0,0
3.959,3.75,0,0,0,0,0
3.96,3.4375,0,0,0,0,0
3.961,3.125,0,0,0,0,0
3.962,3.125,0,0,0,0,0
3.963,3.125,0,0,0,0,0
3.964,3.125,0,0,0,0,0
3.965,2.5,0,0,0,0,0
3.966,3.125,0,0,0,0,0
3.967,3.125,0,0,0,0,0
3.968,4.0625,0,0,0,0,0
3.969,3.75,0,0,0,0,0
3.97,3.4375,0,0,0,0,0
3.971,3.125,0,0,0,0,0
3.972,3.125,0,0,0,0,0
3.973,3.125,0,0,0,0,0
3.974,3.125,0,0,0,0,0
3.975,3.125,0,0,0,0,0
3.976,2.8125,0,0,0,0,0
3.977,2.5,0,0,0,0,0
3.978,2.8125,0,0,0,0,0
3.979,2.5,0,0,0,0,0
3.98,2.5,0,0,0,0,0
3.981,2.5,0,0,0,0,0
3.982,2.1875,0,0,0,0,0
3.983,1.875,0,0,0,0,0
3.984,2.1875,0,0,0,0,0
3.985,2.5,0,0,0,0,0
3.986,2.5,0,0,0,0,0
3.987,2.5,0,0,0,0,0
3.988,2.8125,0,0,0,0,0
3.989,1.875,0,0,0,0,0
3.99,1.875,0,0,0,0,0
3.991,1.875,0,0,0,0,0
3.992,2.1875,0,0,0,0,0
3.993,2.5,0,0,0,0,0
3.994,1.875,0,0,0,0,0
3.995,2.5,0,0,0,0,0
3.996,2.5,0,0,0,0,0
3.997,1.875,0,0,0,0,0
3.998,1.5625,0,0,0,0,0
3.999,1.25,0,0,0,0,0
4,2.1875,0,0,0,0,0
4.001,1.875,0,0,0,0,0
4.002,1.5625,0,0,0,0,0
4.003,1.875,0,0,0,0,0
4.004,2.1875,0,0,0,0,0
4.005,2.5,0,0,0,0,0
4.006,2.8125,0,0,0,0,0
4.007,3.125,0,0,0,0,0
4.008,3.125,0,0,0,0,0
4.009,3.125,0,0,0,0,0
4.01,2.1875,0,0,0,0,0
4.011,1.875,0,0,0,0,0
4.012,2.1875,0,0,0,0,0
4.013,1.25,0,0,0,0,0
4.014,1.25,0,0,0,0,0
4.015,1.25,0,0,0,0,0
4.016,1.25,0,0,0,0,0
4.017,1.875,0,0,0,0,0
4.018,1.25,0,0,0,0,0
4.019,1.25,0,0,0,0,0
4.02,1.25,0,0,0,0,0
4.021,1.25,0,0,0,0,0
4.022,1.25,0,0,0,0,0
4.023,1.25,0,0,0,0,0
4.024,1.25,0,0,0,0,0
4.025,1.25,0,0,0,0,0
4.026,1.25,0,0,0,0,0
4.027,1.25,0,0,0,0,0
4.028,0.9375,0,0,0,0,0
4.029,0.625,0,0,0,0,0
4.03,0.9375,0,0,0,0,0
4.031,0.625,0,0,0,0,0
4.032,0.3125,0,0,0,0,0
4.033,0,0,0,0,0,0
4.034,-0.3125,0,0,0,0,0
4.035,0,0,0,0,0,0
4.036,0.625,0,0,0,0,0
4.037,0.625,0,0,0,0,0
4.038,0.625,0,0,0,0,0
4.039,1.25,0,0,0,0,0
4.04,0.3125,0,0,0,0,0
4.041,0.625,0,0,0,0,0
4.042,0.9375,0,0,0,0,0
4.043,0.625,0,0,0,0,0
4.044,0.625,0,0,0,0,0
4.045,0.625,0,0,0,0,0
4.046,0.625,0,0,0,0,0
4.047,0.625,0,0,0,0,0
4.048,0.625,0,0,0,0,0
4.049,0.625,0,0,0,0,0
4.05,0.3125,0,0,0,0,0
4.051,0,0,0,0,0,0
4.052,0.3125,0,0,0,0,0
4.053,0.625,0,0,0,0,0
4.054,0.625,0,0,0,0,0
4.055,0.625,0,0,0,0,0
4.056,1.5625,0,0,0,0,0
4.057,1.875,0,0,0,0,0
4.058,1.25,0,0,0,0,0
4.059,1.25,0,0,0,0,0
4.06,1.25,0,0,0,0,0
4.061,1.25,0,0,0,0,0
4.062,0.9375,0,0,0,0,0
4.063,0.625,0,0,0,0,0
4.064,0.9375,0,0,0,0,0
4.065,1.25,0,0,0,0,0
4.066,1.875,0,0,0,0,0
4.067,1.875,0,0,0,0,0
4.068,1.25,0,0,0,0,0
4.069,1.25,0,0,0,0,0
4.07,1.5625,0,0,0,0,0
4.071,1.875,0,0,0,0,0
4.072,1.5625,0,0,0,0,0
4.073,1.25,0,0,0,0,0
4.074,0.9375,0,0,0,0,0
4.075,0.625,0,0,0,0,0
4.076,0.3125,0,0,0,0,0
4.077,0,0,0,0,0,0
4.078,0.625,0,0,0,0,0
4.079,0.625,0,0,0,0,0
4.08,0.9375,0,0,0,0,0
4.081,0.625,0,0,0,0,0
4.082,0.625,0,0,0,0,0
4.083,0.625,0,0,0,0,0
4.084,0.625,0,0,0,0,0
4.085,0.625,0,0,0,0,0
4.086,0.9375,0,0,0,0,0
4.087,0.625,0,0,0,0,0
4.088,0.9375,0,0,0,0,0
4.089,1.875,0,0,0,0,0
4.09,1.5625,0,0,0,0,0
4.091,1.25,0,0,0,0,0
4.092,1.25,0,0,0,0,0
4.093,1.25,0,0,0,0,0
4.094,1.25,0,0,0,0,0
4.095,1.875,0,0,0,0,0
4.096,1.875,0,0,0,0,0
4.097,1.875,0,0,0,0,0
4.098,1.5625,0,0,0,0,0
4.099,1.875,0,0,0,0,0
4.1,2.1875,0,0,0,0,0
4.101,2.5,0,0,0,0,0
4.102,2.5,0,0,0,0,0
4.103,3.125,0,0,0,0,0
4.104,3.125,0,0,0,0,0
4.105,3.75,0,0,0,0,0
4.106,3.4375,0,0,0,0,0
4.107,3.125,0,0,0,0,0
4.108,3.125,0,0,0,0,0
4.109,3.75,0,0,0,0,0
4.11,4.0625,0,0,0,0,0
4.111,4.375,0,0,0,0,0
4.112,4.375,0,0,0,0,0
4.113,5,0,0,0,0,0
4.114,5.625,0,0,0,0,0
4.115,6.25,0,0,0,0,0
4.116,6.25,0,0,0,0,0
4.117,6.25,0,0,0,0,0
4.118,5.9375,0,0,0,0,0
4.119,5.625,0,0,0,0,0
4.12,5.9375,0,0,0,0,0
4.121,6.25,0,0,0,0,0
4.122,5.9375,0,0,0,0,0
4.123,6.25,0,0,0,0,0
4.124,6.25,0,0,0,0,0
4.125,5.625,0,0,0,0,0
4.126,6.25,0,0,0,0,0
4.127,6.25,0,0,0,0,0
4.128,5.3125,0,0,0,0,0
4.129,5.625,0,0,0,0,0
4.13,5,0,0,0,0,0
4.131,5,0,0,0,0,0
4.132,5.3125,0,0,0,0,0
4.133,5,0,0,0,0,0
4.134,5,0,0,0,0,0
4.135,5,0,0,0,0,0
4.136,5.3125,0,0,0,0,0
4.137,5.625,0,0,0,0,0
4.138,5.3125,0,0,0,0,0
4.139,5,0,0,0,0,0
4.14,5.3125,0,0,0,0,0
4.141,5,0,0,0,0,0
4.142,4.375,0,0,0,0,0
4.143,4.375,0,0,0,0,0
4.144,4.6875,0,0,0,0,0
4.145,4.375,0,0,0,0,0
4.146,4.6875,0,0,0,0,0
4.147,4.375,0,0,0,0,0
4.148,4.6875,0,0,0,0,0
4.149,4.375,0,0,0,0,0
4.15,4.375,0,0,0,0,0
4.151,4.375,0,0,0,0,0
4.152,3.75,0,0,0,0,0
4.153,3.125,0,0,0,0,0
4.154,3.125,0,0,0,0,0
4.155,3.75,0,0,0,0,0
4.156,2.8125,0,0,0,0,0
4.157,2.5,0,0,0,0,0
4.158,1.875,0,0,0,0,0
4.159,1.875,0,0,0,0,0
4.16,2.1875,0,0,0,0,0
4.161,1.875,0,0,0,0,0
4.162,1.875,0,0,0,0,0
4.163,1.875,0,0,0,0,0
4.164,1.5625,0,0,0,0,0
4.165,1.25,0,0,0,0,0
4.166,1.25,0,0,0,0,0
4.167,1.25,0,0,0,0,0
4.168,0.625,0,0,0,0,0
4.169,0.625,0,0,0,0,0
4.17,0.625,0,0,0,0,0
4.171,0.625,0,0,0,0,0
4.172,0.625,0,0,0,0,0
4.173,0.625,0,0,0,0,0
4.174,0.625,0,0,0,0,0
4.175,0.625,0,0,0,0,0
4.176,0.625,0,0,0,0,0
4.177,0,0,0,0,0,0
4.178,0.625,0,0,0,0,0
4.179,0.625,0,0,0,0,0
4.18,0.3125,0,0,0,0,0
4.181,0,0,0,0,0,0
4.182,-0.625,0,0,0,0,0
4.183,-0.625,0,0,0,0,0
4.184,-0.3125,0,0,0,0,0
4.185,-0.625,0,0,0,0,0
4.186,-0.625,0,0,0,0,0
4.187,-0.625,0,0,0,0,0
4.188,-0.625,0,0,0,0,0
4.189,0,0,0,0,0,0
4.19,0.3125,0,0,0,0,0
4.191,0,0,0,0,0,0
4.192,-0.3125,0,0,0,0,0
4.193,-0.625,0,0,0,0,0
4.194,-0.9375,0,0,0,0,0
4.195,-0.625,0,0,0,0,0
4.196,-0.625,0,0,0,0,0
4.197,-0.625,0,0,0,0,0
4.198,-0.3125,0,0,0,0,0
4.199,-0.625,0,0,0,0,0
4.2,-0.9375,0,0,0,0,0
4.201,-1.25,0,0,0,0,0
4.202,-0.9375,0,0,0,0,0
4.203,-0.625,0,0,0,0,0
4.204,-0.3125,0,0,0,0,0
4.205,0,0,0,0,0,0
4.206,0.3125,0,0,0,0,0
4.207,0,0,0,0,0,0
4.208,-0.3125,0,0,0,0,0
4.209,-0.625,0,0,0,0,0
4.21,-0.3125,0,0,0,0,0
4.211,0,0,0,0,0,0
4.212,0,0,0,0,0,0
4.213,0,0,0,0,0,0
4.214,-0.625,0,0,0,0,0
4.215,-0.625,0,0,0,0,0
4.216,-0.625,0,0,0,0,0
4.217,-0.625,0,0,0,0,0
4.218,-0.9375,0,0,0,0,0
4.219,-0.625,0,0,0,0,0
4.22,0,0,0,0,0,0
4.221,-0.625,0,0,0,0,0
4.222,-0.625,0,0,0,0,0
4.223,-0.625,0,0,0,0,0
4.224,-1.25,0,0,0,0,0
4.225,-1.25,0,0,0,0,0
4.226,-1.25,0,0,0,0,0
4.227,-1.25,0,0,0,0,0
4.228,-0.9375,0,0,0,0,0
4.229,-1.25,0,0,0,0,0
4.23,-1.5625,0,0,0,0,0
4.231,-1.875,0,0,0,0,0
4.232,-2.1875,0,0,0,0,0
4.233,-1.875,0,0,0,0,0
4.234,-1.5625,0,0,0,0,0
4.235,-1.25,0,0,0,0,0
4.236,-0.9375,0,0,0,0,0
4.237,-0.625,0,0,0,0,0
4.238,-0.9375,0,0,0,0,0
4.239,-1.25,0,0,0,0,0
4.24,-0.9375,0,0,0,0,0
4.241,-0.625,0,0,0,0,0
4.242,-0.625,0,0,0,0,0
4.243,-0.625,0,0,0,0,0
4.244,-0.625,0,0,0,0,0
4.245,-0.625,0,0,0,0,0
4.246,-0.9375,0,0,0,0,0
4.247,-0.625,0,0,0,0,0
4.248,-0.3125,0,0,0,0,0
4.249,0,0,0,0,0,0
4.25,-0.3125,0,0,0,0,0
4.251,0,0,0,0,0,0
4.252,0.9375,0,0,0,0,0
4.253,1.25,0,0,0,0,0
4.254,1.25,0,0,0,0,0
4.255,1.25,0,0,0,0,0
4.256,1.25,0,0,0,0,0
4.257,1.25,0,0,0,0,0
4.258,0.9375,0,0,0,0,0
4.259,0.625,0,0,0,0,0
4.26,0.625,1,0,0,0,0
4.261,0.625,0,0,0,0,0
4.262,0.625,0,0,0,0,0
4.263,0.625,0,0,0,0,0
4.264,0.625,0,0,0,0,0
4.265,0.625,0,0,0,0,0
4.266,0.3125,0,0,0,0,0
4.267,0.625,0,0,0,0,0
4.268,0.9375,0,0,0,0,0
4.269,1.25,0,0,0,0,0
4.27,0.9375,0,0,0,0,0
4.271,0.625,0,0,0,0,0
4.272,0,0,0,0,0,0
4.273,0,0,0,0,0,0
4.274,0.9375,0,0,0,0,0
4.275,1.25,0,0,0,0,0
4.276,1.875,0,0,0,0,0
4.277,2.5,0,0,0,0,0
4.278,3.125,0,0,0,0,0
4.279,3.125,0,0,0,0,0
4.28,4.0625,0,0,0,0,0
4.281,4.375,0,0,0,0,0
4.282,4.375,0,0,0,0,0
4.283,5.625,0,0,0,0,0
4.284,6.25,0,0,0,0,0
4.285,6.875,0,0,0,0,0
4.286,7.5,0,0,0,0,0
4.287,7.5,0,0,0,0,0
4.288,8.125,0,0,0,0,0
4.289,8.75,0,0,0,0,0
4.29,10,0,0,0,0,0
4.291,10.625,0,0,0,0,0
4.292,11.563,0,0,0,0,0
4.293,11.875,0,0,0,0,0
4.294,12.5,0,0,0,0,0
4.295,12.5,0,0,0,0,0
4.296,13.75,0,0,0,0,0
4.297,14.375,0,0,0,0,0
4.298,15.313,0,0,0,0,0
4.299,16.875,0,0,0,0,0
4.3,18.438,0,0,0,0,0
4.301,20,0,0,0,0,0
4.302,20,0,0,0,0,0
4.303,20.625,0,0,0,0,0
4.304,21.25,0,0,0,0,0
4.305,21.25,0,0,0,0,0
4.306,20.625,0,0,0,0,0
4.307,20,0,0,0,0,0
4.308,18.75,0,0,0,0,0
4.309,17.5,0,0,0,0,0
4.31,16.563,0,0,0,0,0
4.311,16.25,0,0,0,0,0
4.312,15.625,0,0,0,0,0
4.313,13.75,0,0,0,0,0
4.314,12.5,0,0,0,0,0
4.315,11.875,0,0,0,0,0
4.316,10.313,0,0,0,0,0
4.317,8.125,0,0,0,0,0
4.318,6.5625,0,0,0,0,0
4.319,4.375,0,0,0,0,0
4.32,0.9375,0,0,0,0,0
4.321,-2.5,0,0,0,0,0
4.322,-5.9375,0,0,0,0,0
4.323,-9.375,0,0,0,0,0
4.324,-12.188,0,0,0,0,0
4.325,-14.375,0,0,0,0,0
4.326,-15.313,0,0,0,0,0
4.327,-15.625,0,0,0,0,0
4.328,-14.375,0,0,0,0,0
4.329,-13.125,0,0,0,0,0
4.33,-10.938,0,0,0,0,0
4.331,-7.5,0,0,0,0,0
4.332,-5.3125,0,0,0,0,0
4.333,-2.5,0,0,0,0,0
4.334,0.9375,0,0,0,0,0
4.335,5,0,0,0,0,0
4.336,8.125,0,0,0,0,0
4.337,10.625,0,0,0,0,0
4.338,12.188,0,0,0,0,0
4.339,13.75,0,0,0,0,0
4.34,15.313,0,0,0,0,0
4.341,16.25,0,0,0,0,0
4.342,17.5,0,0,0,0,0
4.343,19.375,0,0,0,0,0
4.344,21.875,0,0,0,0,0
4.345,24.375,0,0,0,0,0
4.346,25.313,0,0,0,0,0
4.347,26.875,0,0,0,0,0
4.348,27.5,0,0,0,0,0
4.349,28.125,0,0,0,0,0
4.35,27.813,0,0,0,0,0
4.351,28.75,0,0,0,0,0
4.352,29.688,0,0,0,0,0
4.353,30,0,0,0,0,0
4.354,30,0,0,0,0,0
4.355,30.625,0,0,0,0,0
4.356,30.938,0,0,0,0,0
4.357,31.875,0,0,0,0,0
4.358,32.813,0,0,0,0,0
4.359,33.75,0,0,0,0,0
4.36,33.75,0,0,0,0,0
4.361,34.375,0,0,0,0,0
4.362,34.375,0,0,0,0,0
4.363,35,0,0,0,0,0
4.364,35,0,0,0,0,0
4.365,36.25,0,1,0,0,0
4.366,35.938,0,0,0,0,0
4.367,36.25,0,0,0,0,0
4.368,36.563,0,0,0,0,0
4.369,36.25,0,0,0,0,0
4.37,36.25,0,0,0,0,0
4.371,35.625,0,0,0,0,0
4.372,35.938,0,0,0,0,0
4.373,35.625,0,0,0,0,0
4.374,34.688,0,0,0,0,0
4.375,33.75,0,0,0,0,0
4.376,33.75,0,0,0,0,0
4.377,33.75,0,0,0,0,0
4.378,33.438,0,0,0,0,0
4.379,33.75,0,0,0,0,0
4.38,34.063,0,0,0,0,0
4.381,33.75,0,0,0,0,0
4.382,33.125,0,0,0,0,0
4.383,32.5,0,0,0,0,0
4.384,32.188,0,0,0,0,0
4.385,31.25,0,0,0,0,0
4.386,30.625,0,0,0,0,0
4.387,29.375,0,0,0,0,0
4.388,28.75,0,0,0,0,0
4.389,28.125,0,0,0,0,0
4.39,27.5,0,0,0,0,0
4.391,26.875,0,0,0,0,0
4.392,25.938,0,0,0,0,0
4.393,25,0,0,0,0,0
4.394,24.375,0,0,0,0,0
4.395,23.75,0,0,0,0,0
4.396,23.438,0,0,0,0,0
4.397,21.875,0,0,0,0,0
4.398,20.938,0,0,0,0,0
4.399,20,0,0,0,0,0
4.4,19.375,0,0,0,0,0
4.401,18.75,0,0,0,0,0
4.402,18.125,0,0,0,0,0
4.403,17.5,0,0,0,0,0
4.404,17.188,0,0,0,0,0
4.405,16.875,0,0,0,0,0
4.406,16.25,0,0,0,0,0
4.407,15.625,0,0,0,0,0
4.408,14.688,0,0,0,0,0
4.409,14.375,0,0,0,0,0
4.41,13.125,0,0,0,0,0
4.411,12.5,0,0,0,0,0
4.412,11.25,0,0,0,0,0
4.413,10,0,0,0,0,0
4.414,9.0625,0,0,0,0,0
4.415,8.125,0,0,0,0,0
4.416,6.5625,0,0,0,0,0
4.417,5,0,0,0,0,0
4.418,4.0625,0,0,0,0,0
4.419,3.75,0,0,0,0,0
4.42,3.125,0,0,0,0,0
4.421,2.5,0,0,0,0,0
4.422,1.875,0,0,0,0,0
4.423,1.875,0,0,0,0,0
4.424,1.5625,0,0,0,0,0
4.425,1.25,0,0,0,0,0
4.426,0,0,0,0,0,0
4.427,-0.625,0,0,0,0,0
4.428,-0.625,0,0,0,0,0
4.429,0,0,0,0,0,0
4.43,-0.3125,0,0,0,0,0
4.431,0,0,0,0,0,0
4.432,-0.3125,0,0,0,0,0
4.433,-0.625,0,0,0,0,0
4.434,-0.3125,0,0,1,0,0
4.435,-0.625,0,0,0,0,0
4.436,-0.3125,0,0,0,0,0
4.437,0,0,0,0,0,0
4.438,0.3125,0,0,0,0,0
4.439,0.625,0,0,0,0,0
4.44,-0.625,0,0,0,0,0
4.441,-0.625,0,0,0,0,0
4.442,-0.625,0,0,0,0,0
4.443,-1.25,0,0,0,0,0
4.444,-1.5625,0,0,0,0,0
4.445,-1.875,0,0,0,0,0
4.446,-1.25,0,0,0,0,0
4.447,-0.625,0,0,0,0,0
4.448,-1.5625,0,0,0,0,0
4.449,-1.875,0,0,0,0,0
4.45,-2.1875,0,0,0,0,0
4.451,-2.5,0,0,0,0,0
4.452,-2.5,0,0,0,0,0
4.453,-2.5,0,0,0,0,0
4.454,-2.1875,0,0,0,0,0
4.455,-1.875,0,0,0,0,0
4.456,-2.1875,0,0,0,0,0
4.457,-1.875,0,0,0,0,0
4.458,-2.1875,0,0,0,0,0
4.459,-1.875,0,0,0,0,0
4.46,-2.1875,0,0,0,0,0
4.461,-2.5,0,0,0,0,0
4.462,-2.1875,0,0,0,0,0
4.463,-1.875,0,0,0,0,0
4.464,-2.5,0,0,0,0,0
4.465,-1.875,0,0,0,0,0
4.466,-1.5625,0,0,0,0,0
4.467,-1.875,0,0,0,0,0
4.468,-1.875,0,0,0,0,0
4.469,-1.875,0,0,0,0,0
4.47,-1.875,0,0,0,0,0
4.471,-1.875,0,0,0,0,0
4.472,-2.1875,0,0,0,0,0
4.473,-3.125,0,0,0,0,0
4.474,-2.5,0,0,0,0,0
4.475,-2.5,0,0,0,0,0
4.476,-2.8125,0,0,0,0,0
4.477,-2.5,0,0,0,0,0
4.478,-2.5,0,0,0,0,0
4.479,-2.5,0,0,0,0,0
4.48,-3.125,0,0,0,0,0
4.481,-3.75,0,0,0,0,0
4.482,-3.75,0,0,0,0,0
4.483,-3.75,0,0,0,0,0
4.484,-3.75,0,0,0,0,0
4.485,-3.75,0,0,0,0,0
4.486,-3.75,0,0,0,0,0
4.487,-3.75,0,0,0,0,0
4.488,-3.75,0,0,0,0,0
4.489,-3.75,0,0,0,0,0
4.49,-3.75,0,0,0,0,0
4.491,-3.75,0,0,0,0,0
4.492,-3.75,0,0,0,0,0
4.493,-3.75,0,0,0,0,0
4.494,-3.75,0,0,0,0,0
4.495,-3.75,0,0,0,0,0
4.496,-4.0625,0,0,0,0,0
4.497,-3.75,0,0,0,0,0
4.498,-4.0625,0,0,0,0,0
4.499,-3.75,0,0,0,0,0
4.5,-4.375,0,0,0,0,0
4.501,-4.375,0,0,0,0,0
4.502,-4.0625,0,0,0,0,0
4.503,-3.75,0,0,0,0,0
4.504,-4.0625,0,0,0,0,0
4.505,-3.75,0,0,0,0,0
4.506,-3.75,0,0,0,0,0
4.507,-3.75,0,0,0,0,0
4.508,-4.0625,0,0,0,0,0
4.509,-4.375,0,0,0,0,0
4.51,-5,0,0,0,0,0
4.511,-5,0,0,0,0,0
4.512,-5.3125,0,0,0,0,0
4.513,-5.625,0,0,0,0,0
4.514,-5.3125,0,0,0,0,0
4.515,-5,0,0,0,0,0
4.516,-5,0,0,0,0,0
4.517,-5,0,0,0,0,0
4.518,-5,0,0,0,0,0
4.519,-5,0,0,0,0,0
4.52,-4.6875,0,0,0,0,0
4.521,-5,0,0,0,0,0
4.522,-5,0,0,0,0,0
4.523,-5,0,0,0,0,0
4.524,-5.3125,0,0,0,0,0
4.525,-5.625,0,0,0,0,0
4.526,-5.625,0,0,0,0,0
4.527,-6.25,0,0,0,0,0
4.528,-6.25,0,0,0,0,0
4.529,-6.25,0,0,0,0,0
4.53,-6.25,0,0,0,0,0
4.531,-6.25,0,0,0,0,0
4.532,-6.25,0,0,0,0,0
4.533,-6.875,0,0,0,0,0
4.534,-6.5625,0,0,0,0,0
4.535,-6.875,0,0,0,0,0
4.536,-6.5625,0,0,0,0,0
4.537,-7.5,0,0,0,0,0
4.538,-7.8125,0,0,0,0,0
4.539,-8.125,0,0,0,0,0
4.54,-8.75,0,0,0,0,0
4.541,-8.75,0,0,0,0,0
4.542,-8.75,0,0,0,0,0
4.543,-8.75,0,0,0,0,0
4.544,-8.4375,0,0,0,0,0
4.545,-8.125,0,0,0,0,0
4.546,-8.125,0,0,0,0,0
4.547,-8.75,0,0,0,0,0
4.548,-8.75,0,0,0,0,0
4.549,-8.75,0,0,0,0,0
4.55,-8.75,0,0,0,0,0
4.551,-9.375,0,0,0,0,0
4.552,-9.375,0,0,0,0,0
4.553,-10,0,0,0,0,0
4.554,-10,0,0,0,0,0
4.555,-10,0,0,0,0,0
4.556,-10.938,0,0,0,0,0
4.557,-11.25,0,0,0,0,0
4.558,-10.938,0,0,0,0,0
4.559,-10.625,0,0,0,0,0
4.56,-10.625,0,0,0,0,0
4.561,-11.25,0,0,0,0,0
4.562,-11.563,0,0,0,0,0
4.563,-11.875,0,0,0,0,0
4.564,-12.5,0,0,0,0,0
4.565,-12.5,0,0,0,0,0
4.566,-12.188,0,0,0,0,0
4.567,-12.5,0,0,0,0,0
4.568,-12.5,0,0,0,0,0
4.569,-12.5,0,0,0,0,0
4.57,-12.5,0,0,0,0,0
4.571,-13.125,0,0,0,0,0
4.572,-13.125,0,0,0,0,0
4.573,-13.125,0,0,0,0,0
4.574,-13.438,0,0,0,0,0
4.575,-13.75,0,0,0,0,0
4.576,-13.75,0,0,0,0,0
4.577,-13.75,0,0,0,0,0
4.578,-13.75,0,0,0,0,0
4.579,-14.375,0,0,0,0,0
4.58,-14.063,0,0,0,0,0
4.581,-13.75,0,0,0,0,0
4.582,-14.063,0,0,0,0,0
4.583,-14.375,0,0,0,0,0
4.584,-14.688,0,0,0,0,0
4.585,-15,0,0,0,0,0
4.586,-14.375,0,0,0,0,0
4.587,-14.375,0,0,0,1,0
4.588,-14.688,0,0,0,0,0
4.589,-15,0,0,0,0,0
4.59,-15,0,0,0,0,0
4.591,-15,0,0,0,0,0
4.592,-15,0,0,0,0,0
4.593,-15,0,0,0,0,0
4.594,-14.688,0,0,0,0,0
4.595,-15,0,0,0,0,0
4.596,-15,0,0,0,0,0
4.597,-15,0,0,0,0,0
4.598,-15,0,0,0,0,0
4.599,-14.375,0,0,0,0,0
4.6,-14.688,0,0,0,0,0
4.601,-14.375,0,0,0,0,0
4.602,-14.063,0,0,0,0,0
4.603,-13.75,0,0,0,0,0
4.604,-14.063,0,0,0,0,0
4.605,-13.75,0,0,0,0,0
4.606,-13.125,0,0,0,0,0
4.607,-12.5,0,0,0,0,0
4.608,-12.813,0,0,0,0,0
4.609,-13.125,0,0,0,0,0
4.61,-12.813,0,0,0,0,0
4.611,-13.125,0,0,0,0,0
4.612,-13.125,0,0,0,0,0
4.613,-13.125,0,0,0,0,0
4.614,-13.125,0,0,0,0,0
4.615,-12.5,0,0,0,0,0
4.616,-11.563,0,0,0,0,0
4.617,-11.25,0,0,0,0,0
4.618,-10.625,0,0,0,0,0
4.619,-10.625,0,0,0,0,0
4.62,-10.938,0,0,0,0,0
4.621,-11.25,0,0,0,0,0
4.622,-10.938,0,0,0,0,0
4.623,-10.625,0,0,0,0,0
4.624,-10.625,0,0,0,0,0
4.625,-10,0,0,0,0,0
4.626,-10,0,0,0,0,0
4.627,-10,0,0,0,0,0
4.628,-9.0625,0,0,0,0,0
4.629,-8.125,0,0,0,0,0
4.63,-8.125,0,0,0,0,0
4.631,-7.5,0,0,0,0,0
4.632,-7.1875,0,0,0,0,0
4.633,-7.5,0,0,0,0,0
4.634,-6.5625,0,0,0,0,0
4.635,-6.25,0,0,0,0,0
4.636,-5.625,0,0,0,0,0
4.637,-5,0,0,0,0,0
4.638,-5,0,0,0,0,0
4.639,-5,0,0,0,0,0
4.64,-4.375,0,0,0,0,0
4.641,-4.375,0,0,0,0,0
4.642,-3.4375,0,0,0,0,0
4.643,-3.125,0,0,0,0,0
4.644,-2.8125,0,0,0,0,0
4.645,-2.5,0,0,0,0,0
4.646,-2.5,0,0,0,0,0
4.647,-2.5,0,0,0,0,0
4.648,-1.875,0,0,0,0,0
4.649,-1.875,0,0,0,0,0
4.65,-0.9375,0,0,0,0,0
4.651,-0.625,0,0,0,0,0
4.652,-0.3125,0,0,0,0,0
4.653,-0.625,0,0,0,0,0
4.654,0,0,0,0,0,0
4.655,0,0,0,0,0,0
4.656,0.3125,0,0,0,0,0
4.657,0,0,0,0,0,0
4.658,0.3125,0,0,0,0,0
4.659,0,0,0,0,0,0
4.66,0,0,0,0,0,0
4.661,0.625,0,0,0,0,0
4.662,0.9375,0,0,0,0,0
4.663,1.875,0,0,0,0,0
4.664,1.875,0,0,0,0,0
4.665,2.5,0,0,0,0,0
4.666,2.8125,0,0,0,0,0
4.667,3.125,0,0,0,0,0
4.668,2.8125,0,0,0,0,0
4.669,2.5,0,0,0,0,0
4.67,2.1875,0,0,0,0,0
4.671,1.875,0,0,0,0,0
4.672,2.5,0,0,0,0,0
4.673,2.5,0,0,0,0,0
4.674,3.125,0,0,0,0,0
4.675,3.75,0,0,0,0,0
4.676,3.75,0,0,0,0,0
4.677,3.75,0,0,0,0,0
4.678,5,0,0,0,0,0
4.679,5,0,0,0,0,0
4.68,4.6875,0,0,0,0,0
4.681,5,0,0,0,0,0
4.682,5.3125,0,0,0,0,1
4.683,5.625,0,0,0,0,0
4.684,5.625,0,0,0,0,0
4.685,5.625,0,0,0,0,0
4.686,5.625,0,0,0,0,0
4.687,5.625,0,0,0,0,0
4.688,5.625,0,0,0,0,0
4.689,5.625,0,0,0,0,0
4.69,5.625,0,0,0,0,0
4.691,5.625,0,0,0,0,0
4.692,5.625,0,0,0,0,0
4.693,5,0,0,0,0,0
4.694,4.6875,0,0,0,0,0
4.695,5,0,0,0,0,0
4.696,4.375,0,0,0,0,0
4.697,4.375,0,0,0,0,0
4.698,5,0,0,0,0,0
4.699,5,0,0,0,0,0
4.7,4.0625,0,0,0,0,0
4.701,3.75,0,0,0,0,0
4.702,3.75,0,0,0,0,0
4.703,3.75,0,0,0,0,0
4.704,3.75,0,0,0,0,0
4.705,3.75,0,0,0,0,0
4.706,4.0625,0,0,0,0,0
4.707,3.75,0,0,0,0,0
4.708,4.375,0,0,0,0,0
4.709,4.375,0,0,0,0,0
4.71,3.75,0,0,0,0,0
4.711,3.75,0,0,0,0,0
4.712,4.0625,0,0,0,0,0
4.713,3.75,0,0,0,0,0
4.714,3.75,0,0,0,0,0
4.715,3.125,0,0,0,0,0
4.716,3.125,0,0,0,0,0
4.717,3.125,0,0,0,0,0
4.718,3.125,0,0,0,0,0
4.719,3.125,0,0,0,0,0
4.72,2.8125,0,0,0,0,0
4.721,2.5,0,0,0,0,0
4.722,2.8125,0,0,0,0,0
4.723,3.125,0,0,0,0,0
4.724,3.125,0,0,0,0,0
4.725,3.125,0,0,0,0,0
4.726,3.4375,0,0,0,0,0
4.727,3.75,0,0,0,0,0
4.728,4.0625,0,0,0,0,0
4.729,4.375,0,0,0,0,0
4.73,4.0625,0,0,0,0,0
4.731,3.75,0,0,0,0,0
4.732,4.0625,0,0,0,0,0
4.733,3.75,0,0,0,0,0
4.734,3.75,0,0,0,0,0
4.735,3.75,0,0,0,0,0
4.736,3.4375,0,0,0,0,0
4.737,3.125,0,0,0,0,0
4.738,4.0625,0,0,0,0,0
4.739,3.75,0,0,0,0,0
4.74,4.375,0,0,0,0,0
4.741,4.375,0,0,0,0,0
4.742,4.375,0,0,0,0,0
4.743,4.375,0,0,0,0,0
4.744,3.75,0,0,0,0,0
4.745,4.375,0,0,0,0,0
4.746,4.375,0,0,0,0,0
4.747,4.375,0,0,0,0,0
4.748,4.375,0,0,0,0,0
4.749,4.375,0,0,0,0,0
4.75,4.0625,0,0,0,0,0
4.751,3.75,0,0,0,0,0
4.752,4.375,0,0,0,0,0
4.753,4.375,0,0,0,0,0
4.754,4.6875,0,0,0,0,0
4.755,4.375,0,0,0,0,0
4.756,4.6875,0,0,0,0,0
4.757,3.75,0,0,0,0,0
4.758,4.0625,0,0,0,0,0
4.759,4.375,0,0,0,0,0
4.76,4.0625,0,0,0,0,0
4.761,3.75,0,0,0,0,0
4.762,3.75,0,0,0,0,0
4.763,3.75,0,0,0,0,0
4.764,3.75,0,0,0,0,0
4.765,3.75,0,0,0,0,0
4.766,3.75,0,0,0,0,0
4.767,3.125,0,0,0,0,0
4.768,3.125,0,0,0,0,0
4.769,3.125,0,0,0,0,0
4.77,2.8125,0,0,0,0,0
4.771,2.5,0,0,0,0,0
4.772,2.8125,0,0,0,0,0
4.773,3.125,0,0,0,0,0
4.774,3.125,0,0,0,0,0
4.775,3.125,0,0,0,0,0
4.776,4.0625,0,0,0,0,0
4.777,3.75,0,0,0,0,0
4.778,3.4375,0,0,0,0,0
4.779,3.125,0,0,0,0,0
4.78,3.4375,0,0,0,0,0
4.781,3.75,0,0,0,0,0
4.782,2.8125,0,0,0,0,0
4.783,3.125,0,0,0,0,0
4.784,3.125,0,0,0,0,0
4.785,2.5,0,0,0,0,0
4.786,2.5,0,0,0,0,0
4.787,2.5,0,0,0,0,0
4.788,3.125,0,0,0,0,0
4.789,2.5,0,0,0,0,0
4.79,2.1875,0,0,0,0,0
4.791,2.5,0,0,0,0,0
4.792,2.5,0,0,0,0,0
4.793,2.5,0,0,0,0,0
4.794,2.5,0,0,0,0,0
4.795,2.5,0,0,0,0,0
4.796,2.8125,0,0,0,0,0
4.797,3.125,0,0,0,0,0
4.798,2.1875,0,0,0,0,0
4.799,1.875,0,0,0,0,0
4.8,2.8125,0,0,0,0,0
4.801,2.5,0,0,0,0,0
4.802,2.5,0,0,0,0,0
4.803,2.5,0,0,0,0,0
4.804,2.1875,0,0,0,0,0
4.805,2.5,0,0,0,0,0
4.806,2.5,0,0,0,0,0
4.807,3.125,0,0,0,0,0
4.808,2.8125,0,0,0,0,0
4.809,2.5,0,0,0,0,0
4.81,2.5,0,0,0,0,0
4.811,2.5,0,0,0,0,0
4.812,2.1875,0,0,0,0,0
4.813,1.875,0,0,0,0,0
4.814,1.875,0,0,0,0,0
4.815,1.875,0,0,0,0,0
4.816,2.1875,0,0,0,0,0
4.817,2.5,0,0,0,0,0
4.818,2.8125,0,0,0,0,0
4.819,2.5,0,0,0,0,0
4.82,1.875,0,0,0,0,0
4.821,1.25,0,0,0,0,0
4.822,1.25,0,0,0,0,0
4.823,1.875,0,0,0,0,0
4.824,2.1875,0,0,0,0,0
4.825,1.875,0,0,0,0,0
4.826,1.5625,0,0,0,0,0
4.827,1.875,0,0,0,0,0
4.828,1.25,0,0,0,0,0
4.829,1.875,0,0,0,0,0
4.83,2.1875,0,0,0,0,0
4.831,1.875,0,0,0,0,0
4.832,1.5625,0,0,0,0,0
4.833,1.25,0,0,0,0,0
4.834,1.5625,0,0,0,0,0
4.835,1.875,0,0,0,0,0
4.836,1.5625,0,0,0,0,0
4.837,1.25,0,0,0,0,0
4.838,1.5625,0,0,0,0,0
4.839,1.875,0,0,0,0,0
4.84,2.1875,0,0,0,0,0
4.841,2.5,0,0,0,0,0
4.842,2.1875,0,0,0,0,0
4.843,1.875,0,0,0,0,0
4.844,2.1875,0,0,0,0,0
4.845,1.875,0,0,0,0,0
4.846,1.5625,0,0,0,0,0
4.847,1.875,0,0,0,0,0
4.848,1.875,0,0,0,0,0
4.849,1.875,0,0,0,0,0
4.85,1.875,0,0,0,0,0
4.851,1.875,0,0,0,0,0
4.852,1.875,0,0,0,0,0
4.853,1.875,0,0,0,0,0
4.854,2.1875,0,0,0,0,0
4.855,1.875,0,0,0,0,0
4.856,1.875,0,0,0,0,0
4.857,2.5,0,0,0,0,0
4.858,1.875,0,0,0,0,0
4.859,1.25,0,0,0,0,0
4.86,1.5625,0,0,0,0,0
4.861,1.875,0,0,0,0,0
4.862,1.875,0,0,0,0,0
4.863,1.875,0,0,0,0,0
4.864,1.875,0,0,0,0,0
4.865,1.875,0,0,0,0,0
4.866,1.875,0,0,0,0,0
4.867,1.875,0,0,0,0,0
4.868,1.25,0,0,0,0,0
4.869,1.875,0,0,0,0,0
4.87,1.5625,0,0,0,0,0
4.871,1.25,0,0,0,0,0
4.872,1.25,0,0,0,0,0
4.873,1.25,0,0,0,0,0
4.874,1.25,0,0,0,0,0
4.875,1.25,0,0,0,0,0
4.876,0.625,0,0,0,0,0
4.877,0.625,0,0,0,0,0
4.878,1.25,0,0,0,0,0
4.879,1.25,0,0,0,0,0
4.88,1.25,0,0,0,0,0
4.881,1.25,0,0,0,0,0
4.882,0.9375,0,0,0,0,0
4.883,0.625,0,0,0,0,0
4.884,1.5625,0,0,0,0,0
4.885,1.875,0,0,0,0,0
4.886,1.875,0,0,0,0,0
4.887,1.875,0,0,0,0,0
4.888,2.5,0,0,0,0,0
4.889,2.5,0,0,0,0,0
4.89,2.5,0,0,0,0,0
4.891,2.5,0,0,0,0,0
4.892,2.8125,0,0,0,0,0
4.893,2.5,0,0,0,0,0
4.894,3.4375,0,0,0,0,0
4.895,3.75,0,0,0,0,0
4.896,3.4375,0,0,0,0,0
4.897,3.125,0,0,0,0,0
4.898,3.75,0,0,0,0,0
4.899,3.75,0,0,0,0,0
4.9,3.75,0,0,0,0,0
4.901,3.75,0,0,0,0,0
4.902,4.375,0,0,0,0,0
4.903,4.375,0,0,0,0,0
4.904,4.6875,0,0,0,0,0
4.905,5,0,0,0,0,0
4.906,5,0,0,0,0,0
4.907,5,0,0,0,0,0
4.908,5.3125,0,0,0,0,0
4.909,5.625,0,0,0,0,0
4.91,5.3125,0,0,0,0,0
4.911,5,0,0,0,0,0
4.912,5.625,0,0,0,0,0
4.913,5.625,0,0,0,0,0
4.914,5,0,0,0,0,0
4.915,5.625,0,0,0,0,0
4.916,5.625,0,0,0,0,0
4.917,5,0,0,0,0,0
4.918,5.9375,0,0,0,0,0
4.919,5.625,0,0,0,0,0
4.92,5.3125,0,0,0,0,0
4.921,5.625,0,0,0,0,0
4.922,5.625,0,0,0,0,0
4.923,5.625,0,0,0,0,0
4.924,5.9375,0,0,0,0,0
4.925,6.25,0,0,0,0,0
4.926,5.9375,0,0,0,0,0
4.927,5.625,0,0,0,0,0
4.928,5.625,0,0,0,0,0
4.929,5.625,0,0,0,0,0
4.93,5,0,0,0,0,0
4.931,5,0,0,0,0,0
4.932,5.625,0,0,0,0,0
4.933,5.625,0,0,0,0,0
4.934,5,0,0,0,0,0
4.935,5,0,0,0,0,0
4.936,4.6875,0,0,0,0,0
4.937,5,0,0,0,0,0
4.938,4.0625,0,0,0,0,0
4.939,3.75,0,0,0,0,0
4.94,4.0625,0,0,0,0,0
4.941,3.75,0,0,0,0,0
4.942,3.4375,0,0,0,0,0
4.943,3.125,0,0,0,0,0
4.944,2.8125,0,0,0,0,0
4.945,1.875,0,0,0,0,0
4.946,1.875,0,0,0,0,0
4.947,1.25,0,0,0,0,0
4.948,1.5625,0,0,0,0,0
4.949,1.875,0,0,0,0,0
4.95,1.25,0,0,0,0,0
4.951,1.25,0,0,0,0,0
4.952,1.5625,0,0,0,0,0
4.953,1.875,0,0,0,0,0
4.954,1.5625,0,0,0,0,0
4.955,1.25,0,0,0,0,0
4.956,1.25,0,0,0,0,0
4.957,0.625,0,0,0,0,0
4.958,0.3125,0,0,0,0,0
4.959,0,0,0,0,0,0
4.96,-0.3125,0,0,0,0,0
4.961,-0.625,0,0,0,0,0
4.962,-0.625,0,0,0,0,0
4.963,-0.625,0,0,0,0,0
4.964,0,0,0,0,0,0
4.965,0.625,0,0,0,0,0
4.966,0,0,0,0,0,0
4.967,0.625,0,0,0,0,0
4.968,0.625,0,0,0,0,0
4.969,0.625,0,0,0,0,0
4.97,0.625,0,0,0,0,0
4.971,0,0,0,0,0,0
4.972,-0.625,0,0,0,0,0
4.973,-0.625,0,0,0,0,0
4.974,-0.3125,0,0,0,0,0
4.975,0,0,0,0,0,0
4.976,0,0,0,0,0,0
4.977,0,0,0,0,0,0
4.978,0,0,0,0,0,0
4.979,-0.625,0,0,0,0,0
4.98,-0.9375,0,0,0,0,0
4.981,-0.625,0,0,0,0,0
4.982,-0.9375,0,0,0,0,0
4.983,-1.25,0,0,0,0,0
4.984,-0.625,0,0,0,0,0
4.985,-0.625,0,0,0,0,0
4.986,-0.625,0,0,0,0,0
4.987,-0.625,0,0,0,0,0
4.988,-1.25,0,0,0,0,0
4.989,-1.25,0,0,0,0,0
4.99,-1.25,0,0,0,0,0
4.991,-1.25,0,0,0,0,0
4.992,-1.25,0,0,0,0,0
4.993,-1.25,0,0,0,0,0
4.994,-1.25,0,0,0,0,0
4.995,-1.25,0,0,0,0,0
4.996,-1.5625,0,0,0,0,0
4.997,-1.25,0,0,0,0,0
4.998,-1.25,0,0,0,0,0
4.999,-1.25,0,0,0,0,0
5,-1.5625,0,0,0,0,0
5.001,-1.875,0,0,0,0,0
5.002,-1.5625,0,0,0,0,0
5.003,-1.25,0,0,0,0,0
5.004,-0.9375,0,0,0,0,0
5.005,-1.25,0,0,0,0,0
5.006,-0.9375,0,0,0,0,0
5.007,-1.25,0,0,0,0,0
5.008,-1.5625,0,0,0,0,0
5.009,-1.25,0,0,0,0,0
5.01,-1.5625,0,0,0,0,0
5.011,-1.25,0,0,0,0,0
5.012,-1.5625,0,0,0,0,0
5.013,-1.875,0,0,0,0,0
5.014,-0.9375,0,0,0,0,0
5.015,-0.625,0,0,0,0,0
5.016,-0.625,0,0,0,0,0
5.017,-0.625,0,0,0,0,0
5.018,-1.25,0,0,0,0,0
5.019,-1.25,0,0,0,0,0
5.02,-1.25,0,0,0,0,0
5.021,-1.25,0,0,0,0,0
5.022,-0.9375,0,0,0,0,0
5.023,-1.25,0,0,0,0,0
5.024,-1.25,0,0,0,0,0
5.025,-1.25,0,0,0,0,0
5.026,-1.25,0,0,0,0,0
5.027,-1.25,0,0,0,0,0
5.028,-1.25,0,0,0,0,0
5.029,-1.25,0,0,0,0,0
5.03,-0.9375,0,0,0,0,0
5.031,-0.625,0,0,0,0,0
5.032,-0.625,0,0,0,0,0
5.033,-0.625,0,0,0,0,0
5.034,-0.3125,0,0,0,0,0
5.035,-0.625,0,0,0,0,0
5.036,-0.9375,1,0,0,0,0
5.037,-0.625,0,0,0,0,0
5.038,0,0,0,0,0,0
5.039,-0.625,0,0,0,0,0
5.04,-0.9375,0,0,0,0,0
5.041,-0.625,0,0,0,0,0
5.042,-0.3125,0,0,0,0,0
5.043,0,0,0,0,0,0
5.044,0,0,0,0,0,0
5.045,0,0,0,0,0,0
5.046,0,0,0,0,0,0
5.047,0,0,0,0,0,0
5.048,0.3125,0,0,0,0,0
5.049,0.625,0,0,0,0,0
5.05,0.9375,0,0,0,0,0
5.051,1.25,0,0,0,0,0
5.052,0.9375,0,0,0,0,0
5.053,0.625,0,0,0,0,0
5.054,0.625,0,0,0,0,0
5.055,0.625,0,0,0,0,0
5.056,1.5625,0,0,0,0,0
5.057,1.875,0,0,0,0,0
5.058,1.5625,0,0,0,0,0
5.059,1.25,0,0,0,0,0
5.06,1.5625,0,0,0,0,0
5.061,1.875,0,0,0,0,0
5.062,2.1875,0,0,0,0,0
5.063,2.5,0,0,0,0,0
5.064,2.5,0,0,0,0,0
5.065,3.125,0,0,0,0,0
5.066,3.125,0,0,0,0,0
5.067,3.125,0,0,0,0,0
5.068,3.125,0,0,0,0,0
5.069,3.75,0,0,0,0,0
5.07,3.4375,0,0,0,0,0
5.071,3.125,0,0,0,0,0
5.072,4.375,0,0,0,0,0
5.073,5,0,0,0,0,0
5.074,6.25,0,0,0,0,0
5.075,7.5,0,0,0,0,0
5.076,7.5,0,0,0,0,0
5.077,8.125,0,0,0,0,0
5.078,8.4375,0,0,0,0,0
5.079,9.375,0,0,0,0,0
5.08,10,0,0,0,0,0
5.081,10.625,0,0,0,0,0
5.082,10.625,0,0,0,0,0
5.083,11.875,0,0,0,0,0
5.084,12.188,0,0,0,0,0
5.085,13.125,0,0,0,0,0
5.086,13.438,0,0,0,0,0
5.087,13.75,0,0,0,0,0
5.088,15,0,0,0,0,0
5.089,16.25,0,0,0,0,0
5.09,17.813,0,0,0,0,0
5.091,18.75,0,0,0,0,0
5.092,20.625,0,0,0,0,0
5.093,21.25,0,0,0,0,0
5.094,20.938,0,0,0,0,0
5.095,20.625,0,0,0,0,0
5.096,20.625,0,0,0,0,0
5.097,20,0,0,0,0,0
5.098,18.438,0,0,0,0,0
5.099,16.875,0,0,0,0,0
5.1,15.938,0,0,0,0,0
5.101,15.625,0,0,0,0,0
5.102,14.375,0,0,0,0,0
5.103,13.125,0,0,0,0,0
5.104,12.5,0,0,0,0,0
5.105,11.875,0,0,0,0,0
5.106,11.25,0,0,0,0,0
5.107,10,0,0,0,0,0
5.108,7.8125,0,0,0,0,0
5.109,5.625,0,0,0,0,0
5.11,4.375,0,0,0,0,0
5.111,1.875,0,0,0,0,0
5.112,-2.1875,0,0,0,0,0
5.113,-5.625,0,0,0,0,0
5.114,-8.4375,0,0,0,0,0
5.115,-10.625,0,0,0,0,0
5.116,-12.813,0,0,0,0,0
5.117,-13.125,0,0,0,0,0
5.118,-14.063,0,0,0,0,0
5.119,-13.75,0,0,0,0,0
5.12,-10.938,0,0,0,0,0
5.121,-8.75,0,0,0,0,0
5.122,-6.25,0,0,0,0,0
5.123,-3.75,0,0,0,0,0
5.124,0.625,0,0,0,0,0
5.125,4.375,0,0,0,0,0
5.126,7.1875,0,0,0,0,0
5.127,9.375,0,0,0,0,0
5.128,11.563,0,0,0,0,0
5.129,13.75,0,0,0,0,0
5.13,15,0,0,0,0,0
5.131,16.25,0,0,0,0,0
5.132,17.813,0,0,0,0,0
5.133,19.375,0,0,0,0,0
5.134,21.563,0,0,0,0,0
5.135,23.125,0,0,0,0,0
5.136,25.313,0,0,0,0,0
5.137,26.875,0,0,0,0,0
5.138,28.125,0,0,0,0,0
5.139,28.125,0,0,0,0,0
5.14,29.375,0,0,0,0,0
5.141,30,0,0,0,0,0
5.142,30.313,0,0,0,0,0
5.143,30.625,0,0,0,0,0
5.144,30.938,0,0,0,0,0
5.145,30.625,0,0,0,0,0
5.146,31.25,0,0,0,0,0
5.147,31.875,0,0,0,0,0
5.148,32.5,0,0,0,0,0
5.149,32.5,0,0,0,0,0
5.15,33.125,0,0,0,0,0
5.151,33.125,0,0,0,0,0
5.152,33.75,0,0,0,0,0
5.153,33.75,0,0,0,0,0
5.154,35.313,0,0,0,0,0
5.155,35.625,0,0,0,0,0
5.156,36.25,0,0,0,0,0
5.157,36.875,0,0,0,0,0
5.158,37.188,0,1,0,0,0
5.159,37.5,0,0,0,0,0
5.16,37.188,0,0,0,0,0
5.161,37.5,0,0,0,0,0
5.162,36.563,0,0,0,0,0
5.163,35.625,0,0,0,0,0
5.164,34.688,0,0,0,0,0
5.165,34.375,0,0,0,0,0
5.166,34.375,0,0,0,0,0
5.167,34.375,0,0,0,0,0
5.168,34.688,0,0,0,0,0
5.169,34.375,0,0,0,0,0
5.17,34.375,0,0,0,0,0
5.171,34.375,0,0,0,0,0
5.172,33.75,0,0,0,0,0
5.173,33.75,0,0,0,0,0
5.174,33.125,0,0,0,0,0
5.175,32.5,0,0,0,0,0
5.176,31.25,0,0,0,0,0
5.177,30.625,0,0,0,0,0
5.178,30,0,0,0,0,0
5.179,29.375,0,0,0,0,0
5.18,29.063,0,0,0,0,0
5.181,28.125,0,0,0,0,0
5.182,26.875,0,0,0,0,0
5.183,26.25,0,0,0,0,0
5.184,25.625,0,0,0,0,0
5.185,25.625,0,0,0,0,0
5.186,24.375,0,0,0,0,0
5.187,23.125,0,0,0,0,0
5.188,21.875,0,0,0,0,0
5.189,21.25,0,0,0,0,0
5.19,20.625,0,0,0,0,0
5.191,20,0,0,0,0,0
5.192,19.688,0,0,0,0,0
5.193,19.375,0,0,0,0,0
5.194,18.75,0,0,0,0,0
5.195,18.125,0,0,0,0,0
5.196,17.188,0,0,0,0,0
5.197,16.25,0,0,0,0,0
5.198,16.25,0,0,0,0,0
5.199,15,0,0,0,0,0
5.2,14.063,0,0,0,0,0
5.201,13.125,0,0,0,0,0
5.202,12.813,0,0,0,0,0
5.203,11.875,0,0,0,0,0
5.204,10.938,0,0,0,0,0
5.205,10,0,0,0,0,0
5.206,8.125,0,0,0,0,0
5.207,6.25,0,0,0,0,0
5.208,5.3125,0,0,0,0,0
5.209,4.375,0,0,0,0,0
5.21,4.0625,0,0,0,0,0
5.211,3.125,0,0,0,0,0
5.212,2.8125,0,0,0,0,0
5.213,2.5,0,0,0,0,0
5.214,1.5625,0,0,0,0,0
5.215,0.625,0,0,0,0,0
5.216,0.3125,0,0,0,0,0
5.217,-0.625,0,0,0,0,0
5.218,-0.625,0,0,0,0,0
5.219,-1.25,0,0,0,0,0
5.22,-1.5625,0,0,0,0,0
5.221,-1.875,0,0,0,0,0
5.222,-2.5,0,0,0,0,0
5.223,-2.5,0,0,0,0,0
5.224,-2.5,0,0,0,0,0
5.225,-2.5,0,0,0,0,0
5.226,-2.5,0,0,0,0,0
5.227,-2.5,0,0,0,0,0
5.228,-2.5,0,0,0,0,0
5.229,-3.125,0,0,0,0,0
5.23,-2.1875,0,0,0,0,0
5.231,-1.875,0,0,0,0,0
5.232,-2.5,0,0,0,0,0
5.233,-2.5,0,0,0,0,0
5.234,-2.5,0,0,0,0,0
5.235,-2.5,0,0,0,0,0
5.236,-2.1875,0,0,0,0,0
5.237,-2.5,0,0,1,0,0
5.238,-2.1875,0,0,0,0,0
5.239,-1.875,0,0,0,0,0
5.24,-1.875,0,0,0,0,0
5.241,-1.875,0,0,0,0,0
5.242,-2.1875,0,0,0,0,0
5.243,-2.5,0,0,0,0,0
5.244,-2.5,0,0,0,0,0
5.245,-3.125,0,0,0,0,0
5.246,-3.125,0,0,0,0,0
5.247,-3.125,0,0,0,0,0
5.248,-2.8125,0,0,0,0,0
5.249,-3.125,0,0,0,0,0
5.25,-3.125,0,0,0,0,0
5.251,-3.125,0,0,0,0,0
5.252,-2.8125,0,0,0,0,0
5.253,-3.125,0,0,0,0,0
5.254,-2.1875,0,0,0,0,0
5.255,-1.875,0,0,0,0,0
5.256,-2.8125,0,0,0,0,0
5.257,-3.125,0,0,0,0,0
5.258,-3.125,0,0,0,0,0
5.259,-3.125,0,0,0,0,0
5.26,-3.4375,0,0,0,0,0
5.261,-3.75,0,0,0,0,0
5.262,-4.6875,0,0,0,0,0
5.263,-4.375,0,0,0,0,0
5.264,-3.75,0,0,0,0,0
5.265,-3.75,0,0,0,0,0
5.266,-3.75,0,0,0,0,0
5.267,-3.75,0,0,0,0,0
5.268,-4.0625,0,0,0,0,0
5.269,-4.375,0,0,0,0,0
5.27,-4.375,0,0,0,0,0
5.271,-4.375,0,0,0,0,0
5.272,-4.375,0,0,0,0,0
5.273,-4.375,0,0,0,0,0
5.274,-4.375,0,0,0,0,0
5.275,-4.375,0,0,0,0,0
5.276,-4.375,0,0,0,0,0
5.277,-4.375,0,0,0,0,0
5.278,-4.375,0,0,0,0,0
5.279,-4.375,0,0,0,0,0
5.28,-4.6875,0,0,0,0,0
5.281,-5,0,0,0,0,0
5.282,-5,0,0,0,0,0
5.283,-5,0,0,0,0,0
5.284,-4.6875,0,0,0,0,0
5.285,-5,0,0,0,0,0
5.286,-5,0,0,0,0,0
5.287,-5,0,0,0,0,0
5.288,-4.0625,0,0,0,0,0
5.289,-4.375,0,0,0,0,0
5.29,-4.375,0,0,0,0,0
5.291,-4.375,0,0,0,0,0
5.292,-3.75,0,0,0,0,0
5.293,-3.75,0,0,0,0,0
5.294,-4.0625,0,0,0,0,0
5.295,-4.375,0,0,0,0,0
5.296,-4.6875,0,0,0,0,0
5.297,-5,0,0,0,0,0
5.298,-4.6875,0,0,0,0,0
5.299,-5,0,0,0,0,0
5.3,-5,0,0,0,0,0
5.301,-5,0,0,0,0,0
5.302,-5.3125,0,0,0,0,0
5.303,-5.625,0,0,0,0,0
5.304,-5.3125,0,0,0,0,0
5.305,-5,0,0,0,0,0
5.306,-5,0,0,0,0,0
5.307,-5,0,0,0,0,0
5.308,-5.3125,0,0,0,0,0
5.309,-5.625,0,0,0,0,0
5.31,-6.25,0,0,0,0,0
5.311,-6.25,0,0,0,0,0
5.312,-6.25,0,0,0,0,0
5.313,-6.25,0,0,0,0,0
5.314,-5.9375,0,0,0,0,0
5.315,-5.625,0,0,0,0,0
5.316,-6.25,0,0,0,0,0
5.317,-6.25,0,0,0,0,0
5.318,-6.5625,0,0,0,0,0
5.319,-6.875,0,0,0,0,0
5.32,-7.1875,0,0,0,0,0
5.321,-7.5,0,0,0,0,0
5.322,-7.8125,0,0,0,0,0
5.323,-7.5,0,0,0,0,0
5.324,-8.125,0,0,0,0,0
5.325,-7.5,0,0,0,0,0
5.326,-8.125,0,0,0,0,0
5.327,-8.125,0,0,0,0,0
5.328,-7.8125,0,0,0,0,0
5.329,-8.125,0,0,0,0,0
5.33,-8.125,0,0,0,0,0
5.331,-8.125,0,0,0,0,0
5.332,-8.4375,0,0,0,0,0
5.333,-8.75,0,0,0,0,0
5.334,-8.4375,0,0,0,0,0
5.335,-8.125,0,0,0,0,0
5.336,-8.4375,0,0,0,0,0
5.337,-8.125,0,0,0,0,0
5.338,-8.125,0,0,0,0,0
5.339,-8.125,0,0,0,0,0
5.34,-8.75,0,0,0,0,0
5.341,-8.75,0,0,0,0,0
5.342,-9.375,0,0,0,0,0
5.343,-9.375,0,0,0,0,0
5.344,-9.375,0,0,0,0,0
5.345,-10,0,0,0,0,0
5.346,-10.313,0,0,0,0,0
5.347,-10.625,0,0,0,0,0
5.348,-10.625,0,0,0,0,0
5.349,-10.625,0,0,0,0,0
5.35,-11.25,0,0,0,0,0
5.351,-11.25,0,0,0,0,0
5.352,-11.25,0,0,0,0,0
5.353,-11.875,0,0,0,0,0
5.354,-12.188,0,0,0,0,0
5.355,-12.5,0,0,0,0,0
5.356,-12.813,0,0,0,0,0
5.357,-12.5,0,0,0,0,0
5.358,-12.5,0,0,0,0,0
5.359,-12.5,0,0,0,0,0
5.36,-12.813,0,0,0,0,0
5.361,-12.5,0,0,0,0,0
5.362,-12.813,0,0,0,0,0
5.363,-13.125,0,0,0,0,0
5.364,-13.438,0,0,0,0,0
5.365,-13.75,0,0,0,0,0
5.366,-13.75,0,0,0,0,0
5.367,-13.75,0,0,0,0,0
5.368,-14.063,0,0,0,0,0
5.369,-13.75,0,0,0,0,0
5.37,-13.75,0,0,0,0,0
5.371,-13.75,0,0,0,0,0
5.372,-13.75,0,0,0,0,0
5.373,-13.75,0,0,0,0,0
5.374,-13.75,0,0,0,0,0
5.375,-13.75,0,0,0,0,0
5.376,-14.375,0,0,0,0,0
5.377,-14.375,0,0,0,0,0
5.378,-14.375,0,0,0,0,0
5.379,-14.375,0,0,0,0,0
5.38,-14.688,0,0,0,0,0
5.381,-15,0,0,0,0,0
5.382,-15.625,0,0,0,0,0
5.383,-15.625,0,0,0,0,0
5.384,-15.625,0,0,0,0,0
5.385,-15.625,0,0,0,0,0
5.386,-15.313,0,0,0,0,0
5.387,-15.625,0,0,0,0,0
5.388,-15.313,0,0,0,0,0
5.389,-15,0,0,0,0,0
5.39,-14.688,0,0,0,0,0
5.391,-15,0,0,0,0,0
5.392,-15.313,0,0,0,0,0
5.393,-15.625,0,0,0,0,0
5.394,-14.688,0,0,0,0,0
5.395,-14.375,0,0,0,0,0
5.396,-14.063,0,0,0,0,0
5.397,-13.75,0,0,0,0,0
5.398,-14.063,0,0,0,0,0
5.399,-13.75,0,0,0,0,0
5.4,-13.75,0,0,0,0,0
5.401,-13.75,0,0,0,1,0
5.402,-14.063,0,0,0,0,0
5.403,-14.375,0,0,0,0,0
5.404,-13.75,0,0,0,0,0
5.405,-13.125,0,0,0,0,0
5.406,-13.125,0,0,0,0,0
5.407,-12.5,0,0,0,0,0
5.408,-12.5,0,0,0,0,0
5.409,-12.5,0,0,0,0,0
5.41,-12.5,0,0,0,0,0
5.411,-11.875,0,0,0,0,0
5.412,-10.938,0,0,0,0,0
5.413,-10.625,0,0,0,0,0
5.414,-10.313,0,0,0,0,0
5.415,-10.625,0,0,0,0,0
5.416,-10.313,0,0,0,0,0
5.417,-9.375,0,0,0,0,0
5.418,-8.75,0,0,0,0,0
5.419,-8.75,0,0,0,0,0
5.42,-8.125,0,0,0,0,0
5.421,-7.5,0,0,0,0,0
5.422,-7.5,0,0,0,0,0
5.423,-6.875,0,0,0,0,0
5.424,-7.1875,0,0,0,0,0
5.425,-6.875,0,0,0,0,0
5.426,-6.5625,0,0,0,0,0
5.427,-6.875,0,0,0,0,0
5.428,-6.5625,0,0,0,0,0
5.429,-5.625,0,0,0,0,0
5.43,-5.9375,0,0,0,0,0
5.431,-5.625,0,0,0,0,0
5.432,-5.3125,0,0,0,0,0
5.433,-4.375,0,0,0,0,0
5.434,-3.75,0,0,0,0,0
5.435,-3.75,0,0,0,0,0
5.436,-3.75,0,0,0,0,0
5.437,-3.125,0,0,0,0,0
5.438,-2.8125,0,0,0,0,0
5.439,-1.875,0,0,0,0,0
5.44,-1.875,0,0,0,0,0
